I,II,III,aVR,aVL,aVF,V1,V2,V3,V4,V5,V6,Time (s)
0.108,0.08,-0.028,-0.094,0.068,0.026,-0.047,0.2,0.124,0.078,0.06,-0.005,0.0
0.16,0.118,-0.043,-0.138,0.102,0.037,-0.064,0.272,0.17,0.11,0.087,0.009,0.002
0.143,0.105,-0.038,-0.124,0.091,0.034,-0.058,0.233,0.142,0.096,0.076,0.023,0.004
0.144,0.101,-0.043,-0.123,0.093,0.029,-0.063,0.23,0.14,0.094,0.073,0.038,0.006
0.146,0.102,-0.044,-0.123,0.095,0.029,-0.058,0.206,0.127,0.084,0.07,0.056,0.008
0.139,0.092,-0.048,-0.115,0.094,0.022,-0.06,0.195,0.118,0.075,0.065,0.079,0.01
0.14,0.091,-0.049,-0.116,0.094,0.022,-0.059,0.182,0.11,0.074,0.066,0.11,0.012
0.137,0.094,-0.043,-0.116,0.09,0.026,-0.06,0.173,0.104,0.071,0.065,0.136,0.014
0.132,0.092,-0.039,-0.111,0.086,0.027,-0.059,0.154,0.093,0.059,0.057,0.166,0.016
0.114,0.072,-0.042,-0.094,0.078,0.016,-0.056,0.14,0.087,0.052,0.051,0.187,0.018000000000000002
0.112,0.07,-0.042,-0.092,0.077,0.014,-0.049,0.124,0.081,0.05,0.051,0.221,0.02
0.114,0.079,-0.035,-0.096,0.075,0.022,-0.037,0.118,0.078,0.059,0.056,0.255,0.022
0.114,0.082,-0.032,-0.098,0.073,0.025,-0.037,0.11,0.073,0.06,0.054,0.287,0.024
0.107,0.067,-0.04,-0.087,0.073,0.014,-0.037,0.104,0.065,0.056,0.046,0.31,0.026000000000000002
0.097,0.056,-0.041,-0.077,0.069,0.007,-0.037,0.087,0.048,0.043,0.038,0.328,0.028
0.101,0.058,-0.044,-0.079,0.073,0.007,-0.039,0.075,0.045,0.039,0.034,0.343,0.03
0.087,0.048,-0.038,-0.068,0.062,0.005,-0.037,0.062,0.04,0.035,0.029,0.358,0.032
0.077,0.043,-0.034,-0.059,0.055,0.004,-0.029,0.055,0.035,0.029,0.024,0.377,0.034
0.059,0.025,-0.034,-0.042,0.046,-0.004,-0.027,0.046,0.025,0.024,0.018,0.396,0.036000000000000004
0.049,0.02,-0.029,-0.035,0.039,-0.004,-0.025,0.033,0.017,0.021,0.016,0.414,0.038
0.061,0.034,-0.028,-0.048,0.045,0.003,-0.016,0.025,0.013,0.024,0.016,0.429,0.04
0.067,0.042,-0.025,-0.054,0.046,0.008,-0.012,0.02,0.013,0.027,0.015,0.449,0.042
0.054,0.031,-0.022,-0.043,0.038,0.005,-0.014,0.015,0.01,0.024,0.011,0.465,0.044
0.042,0.021,-0.02,-0.031,0.031,0.0,-0.015,0.011,0.005,0.021,0.005,0.482,0.046
0.042,0.022,-0.02,-0.031,0.031,0.0,-0.01,0.003,0.002,0.017,0.006,0.497,0.048
0.051,0.029,-0.022,-0.041,0.037,0.003,-0.001,0.006,0.006,0.021,0.015,0.519,0.05
0.051,0.032,-0.019,-0.041,0.035,0.006,0.001,0.008,0.008,0.026,0.013,0.537,0.052000000000000005
0.038,0.018,-0.02,-0.028,0.03,-0.001,0.001,-0.003,0.002,0.021,0.006,0.548,0.054
0.036,0.019,-0.017,-0.027,0.026,0.0,0.001,-0.007,0.003,0.014,0.002,0.562,0.056
0.024,0.01,-0.014,-0.017,0.019,-0.002,0.001,-0.01,0.0,0.01,0.0,0.573,0.058
0.022,0.006,-0.016,-0.014,0.019,-0.005,0.001,-0.015,-0.003,0.009,-0.004,0.583,0.06
0.016,0.004,-0.012,-0.011,0.014,-0.004,0.003,-0.02,-0.007,0.009,-0.009,0.598,0.062
0.003,-0.001,-0.004,-0.001,0.004,-0.002,0.009,-0.021,-0.008,0.007,-0.013,0.612,0.064
0.002,0.0,-0.003,-0.001,0.003,-0.002,0.011,-0.025,-0.009,0.004,-0.019,0.626,0.066
0.005,0.0,-0.004,-0.002,0.004,-0.003,0.011,-0.026,-0.013,0.004,-0.017,0.64,0.068
-0.009,-0.01,-0.001,0.009,-0.003,-0.006,0.014,-0.028,-0.017,0.001,-0.016,0.656,0.07
0.014,0.016,0.002,-0.015,0.006,0.01,0.023,-0.02,-0.01,0.01,-0.01,0.685,0.07200000000000001
0.024,0.029,0.005,-0.026,0.01,0.017,0.022,-0.015,-0.004,0.012,-0.007,0.691,0.074
-0.002,0.004,0.005,0.0,-0.004,0.005,0.015,-0.023,-0.015,0.001,-0.016,0.688,0.076
-0.027,-0.021,0.006,0.025,-0.016,-0.008,0.016,-0.033,-0.024,-0.001,-0.017,0.693,0.078
-0.03,-0.023,0.007,0.026,-0.019,-0.008,0.023,-0.038,-0.03,-0.005,-0.022,0.706,0.08
-0.006,0.005,0.011,0.001,-0.008,0.008,0.031,-0.032,-0.023,-0.001,-0.019,0.719,0.082
-0.014,-0.007,0.007,0.01,-0.011,0.0,0.031,-0.031,-0.02,-0.006,-0.024,0.721,0.084
-0.032,-0.029,0.003,0.03,-0.018,-0.012,0.028,-0.032,-0.031,-0.014,-0.03,0.729,0.08600000000000001
-0.017,-0.012,0.005,0.015,-0.011,-0.003,0.034,-0.03,-0.031,-0.013,-0.028,0.742,0.088
-0.011,-0.009,0.002,0.01,-0.007,-0.003,0.038,-0.028,-0.026,-0.015,-0.027,0.753,0.09
-0.011,-0.01,0.001,0.012,-0.006,-0.004,0.041,-0.023,-0.025,-0.016,-0.024,0.762,0.092
-0.01,-0.001,0.009,0.005,-0.009,0.003,0.039,-0.02,-0.021,-0.011,-0.027,0.756,0.094
-0.022,-0.014,0.008,0.018,-0.015,-0.002,0.037,-0.023,-0.03,-0.016,-0.034,0.737,0.096
-0.021,-0.016,0.006,0.019,-0.013,-0.005,0.045,-0.021,-0.028,-0.018,-0.035,0.72,0.098
-0.044,-0.036,0.008,0.04,-0.026,-0.015,0.039,-0.023,-0.033,-0.026,-0.047,0.692,0.1
-0.04,-0.037,0.003,0.038,-0.022,-0.017,0.043,-0.025,-0.039,-0.036,-0.052,0.685,0.10200000000000001
-0.039,-0.035,0.004,0.037,-0.021,-0.016,0.048,-0.018,-0.036,-0.034,-0.054,0.654,0.10400000000000001
-0.056,-0.05,0.006,0.053,-0.031,-0.022,0.048,-0.018,-0.036,-0.036,-0.06,0.544,0.106
-0.051,-0.041,0.01,0.046,-0.031,-0.015,0.045,-0.022,-0.041,-0.041,-0.065,0.402,0.108
-0.073,-0.064,0.009,0.068,-0.041,-0.028,0.043,-0.023,-0.05,-0.051,-0.073,0.282,0.11
-0.069,-0.063,0.006,0.067,-0.038,-0.029,0.057,-0.022,-0.048,-0.051,-0.072,0.21,0.112
-0.027,-0.021,0.005,0.025,-0.016,-0.008,0.076,-0.006,-0.026,-0.04,-0.057,0.18,0.114
-0.025,-0.017,0.008,0.021,-0.016,-0.005,0.069,0.001,-0.021,-0.036,-0.062,0.142,0.116
-0.029,-0.018,0.01,0.024,-0.019,-0.004,0.066,-0.001,-0.025,-0.039,-0.065,0.125,0.11800000000000001
-0.001,0.006,0.008,-0.003,-0.005,0.007,0.065,0.008,-0.014,-0.028,-0.056,0.12,0.12
0.0,0.009,0.009,-0.004,-0.004,0.009,0.056,0.013,-0.01,-0.027,-0.06,0.099,0.122
-0.026,-0.015,0.011,0.021,-0.018,-0.002,0.044,0.013,-0.015,-0.036,-0.069,0.074,0.124
-0.055,-0.041,0.014,0.048,-0.035,-0.014,0.045,0.01,-0.016,-0.047,-0.075,0.053,0.126
-0.06,-0.046,0.013,0.053,-0.036,-0.017,0.047,0.002,-0.02,-0.051,-0.077,0.035,0.128
-0.054,-0.046,0.008,0.05,-0.03,-0.019,0.053,0.007,-0.019,-0.046,-0.075,0.028,0.13
-0.022,-0.019,0.004,0.02,-0.013,-0.007,0.071,0.026,-0.009,-0.034,-0.068,0.03,0.132
-0.011,-0.009,0.002,0.009,-0.007,-0.003,0.077,0.037,0.0,-0.029,-0.069,0.022,0.134
-0.028,-0.027,0.001,0.028,-0.014,-0.013,0.069,0.035,0.0,-0.031,-0.075,0.01,0.136
-0.052,-0.046,0.006,0.049,-0.028,-0.02,0.059,0.032,-0.002,-0.034,-0.08,-0.002,0.138
-0.042,-0.028,0.014,0.036,-0.028,-0.007,0.068,0.033,-0.002,-0.034,-0.078,-0.005,0.14
-0.018,-0.007,0.011,0.013,-0.015,0.002,0.076,0.045,0.005,-0.024,-0.067,-0.003,0.14200000000000002
-0.002,0.003,0.005,0.0,-0.003,0.004,0.079,0.053,0.012,-0.02,-0.064,0.0,0.14400000000000002
0.006,0.009,0.003,-0.008,0.002,0.006,0.081,0.061,0.02,-0.018,-0.065,0.002,0.146
-0.009,-0.002,0.007,0.006,-0.008,0.002,0.079,0.058,0.02,-0.02,-0.069,0.006,0.148
-0.02,-0.016,0.004,0.017,-0.011,-0.007,0.079,0.055,0.018,-0.021,-0.075,0.009,0.15
-0.024,-0.024,0.001,0.024,-0.013,-0.012,0.081,0.061,0.018,-0.014,-0.072,0.013,0.152
-0.031,-0.029,0.003,0.03,-0.018,-0.012,0.079,0.061,0.02,-0.016,-0.074,0.015,0.154
-0.047,-0.042,0.005,0.045,-0.026,-0.018,0.076,0.056,0.015,-0.025,-0.077,0.013,0.156
-0.036,-0.037,-0.001,0.036,-0.018,-0.019,0.082,0.063,0.022,-0.025,-0.072,0.019,0.158
-0.025,-0.026,-0.001,0.025,-0.012,-0.014,0.079,0.066,0.026,-0.021,-0.069,0.02,0.16
-0.011,-0.01,0.0,0.011,-0.005,-0.005,0.082,0.066,0.03,-0.016,-0.069,0.026,0.162
0.005,0.004,-0.002,-0.005,0.003,0.001,0.087,0.075,0.038,-0.006,-0.06,0.038,0.164
-0.011,-0.011,0.0,0.011,-0.006,-0.005,0.077,0.072,0.035,-0.006,-0.063,0.031,0.166
-0.011,-0.013,-0.002,0.012,-0.005,-0.007,0.069,0.068,0.031,-0.014,-0.067,0.029,0.168
-0.006,-0.011,-0.005,0.009,0.001,-0.008,0.068,0.073,0.035,-0.011,-0.069,0.029,0.17
-0.002,-0.011,-0.01,0.006,0.004,-0.01,0.067,0.073,0.041,-0.005,-0.068,0.028,0.17200000000000001
-0.006,-0.018,-0.012,0.012,0.002,-0.015,0.065,0.073,0.04,-0.003,-0.067,0.021,0.17400000000000002
-0.008,-0.017,-0.009,0.013,0.001,-0.013,0.066,0.07,0.038,-0.004,-0.065,0.017,0.176
-0.008,-0.02,-0.012,0.014,0.003,-0.016,0.066,0.071,0.043,-0.003,-0.059,0.013,0.178
-0.007,-0.018,-0.01,0.013,0.002,-0.014,0.066,0.069,0.04,-0.003,-0.057,0.004,0.18
-0.003,-0.013,-0.01,0.009,0.003,-0.012,0.06,0.066,0.035,-0.003,-0.057,-0.004,0.182
-0.012,-0.026,-0.014,0.019,0.001,-0.02,0.054,0.06,0.032,-0.002,-0.057,-0.012,0.184
-0.011,-0.026,-0.015,0.019,0.002,-0.021,0.056,0.058,0.036,0.002,-0.056,-0.011,0.186
-0.001,-0.012,-0.011,0.008,0.005,-0.011,0.061,0.062,0.042,0.006,-0.055,-0.009,0.188
-0.002,-0.013,-0.011,0.007,0.004,-0.011,0.063,0.066,0.041,0.007,-0.054,-0.01,0.19
-0.007,-0.023,-0.016,0.015,0.005,-0.02,0.064,0.066,0.043,0.006,-0.052,-0.011,0.192
-0.017,-0.026,-0.009,0.022,-0.003,-0.017,0.068,0.061,0.042,0.004,-0.054,-0.015,0.194
-0.019,-0.019,0.0,0.019,-0.01,-0.01,0.068,0.065,0.043,0.011,-0.044,-0.017,0.196
-0.011,-0.02,-0.009,0.016,-0.001,-0.015,0.064,0.065,0.047,0.016,-0.042,-0.019,0.198
-0.007,-0.022,-0.015,0.015,0.004,-0.018,0.051,0.061,0.041,0.011,-0.046,-0.027,0.2
0.004,-0.008,-0.012,0.002,0.007,-0.01,0.046,0.056,0.038,0.012,-0.046,-0.027,0.202
0.021,0.013,-0.008,-0.017,0.015,0.002,0.056,0.067,0.05,0.026,-0.03,-0.017,0.20400000000000001
-0.004,-0.013,-0.009,0.009,0.003,-0.012,0.047,0.063,0.05,0.027,-0.031,-0.022,0.20600000000000002
-0.021,-0.028,-0.007,0.024,-0.006,-0.018,0.04,0.048,0.038,0.021,-0.035,-0.025,0.20800000000000002
-0.013,-0.025,-0.012,0.02,0.0,-0.019,0.044,0.045,0.038,0.019,-0.032,-0.02,0.21
-0.01,-0.027,-0.017,0.018,0.004,-0.022,0.042,0.045,0.038,0.02,-0.031,-0.018,0.212
-0.003,-0.017,-0.014,0.009,0.005,-0.015,0.041,0.047,0.04,0.022,-0.028,-0.012,0.214
-0.005,-0.014,-0.009,0.009,0.002,-0.012,0.036,0.046,0.036,0.021,-0.027,-0.017,0.216
-0.009,-0.018,-0.009,0.014,0.0,-0.014,0.036,0.041,0.035,0.025,-0.027,-0.02,0.218
-0.005,-0.012,-0.008,0.009,0.002,-0.01,0.034,0.04,0.035,0.026,-0.026,-0.022,0.22
-0.011,-0.013,-0.002,0.012,-0.005,-0.007,0.029,0.035,0.033,0.024,-0.029,-0.028,0.222
-0.02,-0.026,-0.006,0.023,-0.007,-0.016,0.028,0.03,0.028,0.022,-0.032,-0.029,0.224
-0.018,-0.031,-0.012,0.024,-0.003,-0.022,0.031,0.027,0.028,0.023,-0.027,-0.025,0.226
-0.007,-0.017,-0.01,0.012,0.002,-0.013,0.033,0.028,0.03,0.026,-0.027,-0.021,0.228
-0.008,-0.018,-0.01,0.014,0.001,-0.015,0.031,0.026,0.031,0.026,-0.02,-0.019,0.23
-0.009,-0.014,-0.005,0.012,-0.003,-0.01,0.032,0.023,0.027,0.022,-0.014,-0.022,0.232
-0.004,-0.005,-0.002,0.004,-0.001,-0.004,0.028,0.023,0.027,0.024,-0.014,-0.022,0.234
-0.009,-0.01,-0.001,0.01,-0.005,-0.006,0.019,0.02,0.02,0.022,-0.016,-0.026,0.23600000000000002
-0.02,-0.026,-0.006,0.022,-0.007,-0.016,0.017,0.015,0.012,0.017,-0.017,-0.03,0.23800000000000002
-0.016,-0.029,-0.013,0.023,-0.002,-0.021,0.019,0.009,0.008,0.016,-0.021,-0.027,0.24
-0.007,-0.019,-0.012,0.012,0.003,-0.015,0.023,0.003,0.008,0.015,-0.021,-0.027,0.242
-0.005,-0.009,-0.004,0.007,-0.001,-0.007,0.024,0.007,0.012,0.017,-0.019,-0.027,0.244
-0.022,-0.024,-0.002,0.022,-0.01,-0.012,0.018,0.002,0.01,0.011,-0.02,-0.029,0.246
-0.029,-0.032,-0.003,0.03,-0.012,-0.018,0.017,0.0,0.005,0.009,-0.023,-0.03,0.248
-0.012,-0.018,-0.007,0.015,-0.003,-0.012,0.023,0.0,0.009,0.014,-0.017,-0.023,0.25
-0.004,-0.012,-0.008,0.008,0.002,-0.01,0.023,0.0,0.013,0.014,-0.012,-0.022,0.252
-0.001,-0.011,-0.01,0.007,0.005,-0.01,0.016,0.0,0.007,0.012,-0.016,-0.024,0.254
-0.023,-0.033,-0.01,0.028,-0.007,-0.022,0.008,-0.007,0.0,0.002,-0.027,-0.033,0.256
-0.033,-0.047,-0.014,0.04,-0.009,-0.031,0.011,-0.015,-0.003,-0.001,-0.026,-0.037,0.258
-0.021,-0.026,-0.005,0.023,-0.008,-0.016,0.013,-0.01,-0.003,0.003,-0.025,-0.035,0.26
-0.01,-0.014,-0.004,0.013,-0.003,-0.009,0.016,-0.014,-0.007,0.005,-0.024,-0.032,0.262
-0.002,-0.005,-0.003,0.003,0.0,-0.004,0.013,-0.011,-0.004,0.006,-0.025,-0.033,0.264
-0.034,-0.037,-0.003,0.036,-0.015,-0.021,0.006,-0.014,-0.012,-0.001,-0.029,-0.042,0.266
-0.033,-0.038,-0.005,0.036,-0.013,-0.021,0.006,-0.021,-0.012,-0.001,-0.026,-0.037,0.268
-0.033,-0.04,-0.006,0.037,-0.013,-0.023,0.007,-0.025,-0.015,-0.003,-0.027,-0.032,0.27
-0.03,-0.042,-0.013,0.035,-0.008,-0.028,0.004,-0.029,-0.018,-0.004,-0.027,-0.027,0.272
-0.032,-0.039,-0.007,0.035,-0.013,-0.024,0.003,-0.033,-0.02,-0.007,-0.027,-0.027,0.274
-0.035,-0.039,-0.004,0.038,-0.016,-0.022,0.003,-0.036,-0.02,-0.009,-0.034,-0.027,0.276
-0.039,-0.044,-0.004,0.042,-0.018,-0.024,0.005,-0.033,-0.021,-0.007,-0.032,-0.027,0.278
-0.034,-0.042,-0.008,0.038,-0.013,-0.026,0.004,-0.035,-0.023,-0.011,-0.029,-0.027,0.28
-0.03,-0.043,-0.014,0.037,-0.008,-0.029,0.003,-0.039,-0.023,-0.016,-0.035,-0.03,0.28200000000000003
-0.037,-0.044,-0.007,0.04,-0.016,-0.025,0.004,-0.04,-0.025,-0.021,-0.037,-0.03,0.28400000000000003
-0.036,-0.044,-0.008,0.04,-0.014,-0.025,0.006,-0.04,-0.026,-0.028,-0.034,-0.023,0.28600000000000003
-0.039,-0.05,-0.01,0.045,-0.015,-0.03,0.004,-0.043,-0.03,-0.041,-0.032,-0.022,0.28800000000000003
-0.042,-0.056,-0.014,0.049,-0.014,-0.034,0.006,-0.046,-0.031,-0.054,-0.035,-0.021,0.29
-0.034,-0.044,-0.01,0.039,-0.012,-0.028,0.008,-0.045,-0.033,-0.063,-0.034,-0.017,0.292
-0.041,-0.046,-0.005,0.044,-0.018,-0.025,0.003,-0.048,-0.035,-0.077,-0.039,-0.026,0.294
-0.047,-0.053,-0.005,0.05,-0.02,-0.029,0.001,-0.056,-0.038,-0.087,-0.047,-0.035,0.296
-0.044,-0.051,-0.007,0.047,-0.018,-0.03,0.006,-0.053,-0.033,-0.087,-0.044,-0.035,0.298
-0.057,-0.064,-0.007,0.06,-0.025,-0.035,0.004,-0.055,-0.037,-0.092,-0.042,-0.04,0.3
-0.062,-0.068,-0.007,0.065,-0.028,-0.037,0.005,-0.058,-0.041,-0.096,-0.042,-0.037,0.302
-0.052,-0.055,-0.003,0.053,-0.025,-0.029,0.004,-0.057,-0.038,-0.095,-0.042,-0.029,0.304
-0.051,-0.051,0.0,0.051,-0.025,-0.025,0.003,-0.055,-0.039,-0.089,-0.042,-0.027,0.306
-0.052,-0.052,0.0,0.053,-0.026,-0.026,0.004,-0.058,-0.04,-0.086,-0.041,-0.023,0.308
-0.045,-0.05,-0.004,0.048,-0.02,-0.027,0.011,-0.055,-0.036,-0.081,-0.039,-0.013,0.31
-0.046,-0.048,-0.003,0.047,-0.021,-0.026,0.011,-0.05,-0.036,-0.08,-0.042,-0.011,0.312
-0.061,-0.063,-0.002,0.061,-0.03,-0.032,0.003,-0.058,-0.04,-0.089,-0.049,-0.014,0.314
-0.063,-0.06,0.003,0.062,-0.033,-0.028,0.001,-0.061,-0.045,-0.088,-0.049,-0.012,0.316
-0.066,-0.071,-0.004,0.069,-0.031,-0.038,0.001,-0.063,-0.046,-0.087,-0.049,-0.022,0.318
-0.07,-0.074,-0.005,0.073,-0.033,-0.039,0.004,-0.068,-0.05,-0.082,-0.049,-0.038,0.32
-0.07,-0.067,0.003,0.068,-0.036,-0.032,0.016,-0.067,-0.05,-0.076,-0.042,-0.049,0.322
-0.064,-0.059,0.005,0.062,-0.034,-0.028,0.016,-0.061,-0.047,-0.071,-0.039,-0.057,0.324
-0.07,-0.064,0.005,0.068,-0.037,-0.03,0.014,-0.061,-0.046,-0.067,-0.044,-0.063,0.326
-0.05,-0.053,-0.003,0.051,-0.023,-0.028,0.014,-0.063,-0.048,-0.064,-0.044,-0.06,0.328
-0.057,-0.06,-0.004,0.059,-0.026,-0.032,0.003,-0.064,-0.048,-0.061,-0.046,-0.062,0.33
-0.06,-0.065,-0.005,0.062,-0.028,-0.035,0.001,-0.066,-0.053,-0.061,-0.047,-0.059,0.332
-0.051,-0.058,-0.007,0.055,-0.022,-0.032,0.001,-0.066,-0.053,-0.062,-0.047,-0.059,0.334
-0.062,-0.065,-0.002,0.063,-0.03,-0.033,0.002,-0.068,-0.053,-0.059,-0.044,-0.063,0.336
-0.059,-0.061,-0.002,0.06,-0.029,-0.032,0.003,-0.063,-0.05,-0.052,-0.037,-0.057,0.338
-0.055,-0.057,-0.002,0.056,-0.026,-0.03,-0.003,-0.07,-0.057,-0.059,-0.042,-0.06,0.34
-0.055,-0.052,0.003,0.054,-0.029,-0.025,-0.007,-0.073,-0.055,-0.061,-0.046,-0.055,0.342
-0.064,-0.061,0.003,0.062,-0.034,-0.029,-0.004,-0.068,-0.05,-0.057,-0.047,-0.049,0.34400000000000003
-0.067,-0.074,-0.007,0.07,-0.031,-0.04,0.001,-0.068,-0.052,-0.057,-0.047,-0.047,0.34600000000000003
-0.06,-0.063,-0.003,0.061,-0.027,-0.034,0.001,-0.07,-0.053,-0.054,-0.047,-0.034,0.34800000000000003
-0.065,-0.067,-0.002,0.066,-0.032,-0.035,-0.001,-0.073,-0.056,-0.056,-0.049,-0.034,0.35000000000000003
-0.07,-0.078,-0.008,0.074,-0.031,-0.043,-0.002,-0.076,-0.058,-0.055,-0.055,-0.033,0.352
-0.059,-0.071,-0.013,0.065,-0.023,-0.043,-0.002,-0.071,-0.056,-0.049,-0.052,-0.027,0.354
-0.069,-0.072,-0.003,0.071,-0.033,-0.038,-0.002,-0.073,-0.055,-0.056,-0.049,-0.029,0.356
-0.078,-0.079,-0.001,0.078,-0.038,-0.04,-0.002,-0.081,-0.056,-0.065,-0.05,-0.029,0.358
-0.072,-0.077,-0.006,0.075,-0.033,-0.042,-0.002,-0.076,-0.053,-0.059,-0.047,-0.02,0.36
-0.066,-0.067,-0.001,0.066,-0.032,-0.034,0.0,-0.073,-0.054,-0.053,-0.042,-0.014,0.362
-0.061,-0.056,0.005,0.059,-0.033,-0.025,0.001,-0.074,-0.055,-0.054,-0.042,-0.01,0.364
-0.064,-0.064,0.001,0.064,-0.033,-0.032,0.001,-0.078,-0.053,-0.051,-0.046,-0.004,0.366
-0.06,-0.062,-0.003,0.06,-0.028,-0.032,-0.006,-0.083,-0.057,-0.052,-0.048,-0.002,0.368
-0.071,-0.071,0.0,0.071,-0.036,-0.035,-0.01,-0.083,-0.061,-0.052,-0.049,-0.002,0.37
-0.072,-0.074,-0.002,0.073,-0.035,-0.038,-0.007,-0.078,-0.063,-0.056,-0.05,-0.002,0.372
-0.066,-0.069,-0.003,0.068,-0.032,-0.035,-0.005,-0.075,-0.058,-0.054,-0.047,0.003,0.374
-0.068,-0.065,0.003,0.066,-0.035,-0.031,-0.004,-0.078,-0.058,-0.049,-0.042,0.008,0.376
-0.067,-0.069,-0.002,0.068,-0.033,-0.035,0.0,-0.076,-0.053,-0.044,-0.042,0.015,0.378
-0.065,-0.065,0.0,0.065,-0.033,-0.033,0.001,-0.073,-0.055,-0.041,-0.042,0.019,0.38
-0.064,-0.061,0.004,0.062,-0.033,-0.029,0.001,-0.076,-0.056,-0.046,-0.042,0.018,0.382
-0.072,-0.064,0.008,0.068,-0.04,-0.028,0.001,-0.075,-0.055,-0.044,-0.042,0.021,0.384
-0.08,-0.074,0.006,0.077,-0.043,-0.034,-0.004,-0.076,-0.057,-0.046,-0.043,0.028,0.386
-0.072,-0.07,0.002,0.07,-0.038,-0.033,-0.006,-0.081,-0.063,-0.046,-0.045,0.028,0.388
-0.064,-0.061,0.003,0.063,-0.033,-0.029,-0.002,-0.078,-0.056,-0.043,-0.044,0.029,0.39
-0.06,-0.062,-0.002,0.061,-0.028,-0.033,-0.002,-0.076,-0.053,-0.044,-0.044,0.033,0.392
-0.06,-0.059,0.001,0.059,-0.031,-0.029,-0.001,-0.073,-0.053,-0.042,-0.044,0.038,0.394
-0.057,-0.05,0.007,0.053,-0.033,-0.021,0.003,-0.07,-0.052,-0.039,-0.038,0.044,0.396
-0.055,-0.051,0.004,0.053,-0.029,-0.024,0.002,-0.071,-0.049,-0.039,-0.035,0.046,0.398
-0.065,-0.059,0.005,0.063,-0.036,-0.028,0.001,-0.072,-0.05,-0.041,-0.044,0.046,0.4
-0.074,-0.067,0.008,0.071,-0.041,-0.03,0.001,-0.079,-0.058,-0.047,-0.047,0.041,0.402
-0.08,-0.066,0.013,0.073,-0.046,-0.026,0.001,-0.083,-0.064,-0.053,-0.047,0.037,0.404
-0.085,-0.069,0.016,0.078,-0.05,-0.026,0.001,-0.083,-0.063,-0.055,-0.048,0.04,0.406
-0.07,-0.057,0.013,0.063,-0.041,-0.023,0.004,-0.083,-0.056,-0.056,-0.049,0.047,0.40800000000000003
-0.046,-0.041,0.005,0.044,-0.025,-0.017,0.011,-0.073,-0.046,-0.047,-0.043,0.056,0.41000000000000003
-0.069,-0.062,0.008,0.066,-0.038,-0.027,0.001,-0.071,-0.048,-0.049,-0.042,0.051,0.41200000000000003
-0.092,-0.077,0.015,0.085,-0.053,-0.031,-0.005,-0.08,-0.057,-0.057,-0.047,0.046,0.41400000000000003
-0.087,-0.072,0.016,0.08,-0.051,-0.028,-0.003,-0.086,-0.058,-0.053,-0.046,0.041,0.41600000000000004
-0.079,-0.071,0.008,0.074,-0.043,-0.032,0.0,-0.083,-0.058,-0.046,-0.037,0.043,0.418
-0.065,-0.063,0.002,0.063,-0.033,-0.03,0.001,-0.081,-0.058,-0.049,-0.039,0.044,0.42
-0.074,-0.069,0.006,0.072,-0.04,-0.032,-0.006,-0.08,-0.058,-0.052,-0.042,0.045,0.422
-0.076,-0.072,0.004,0.075,-0.039,-0.033,-0.01,-0.078,-0.058,-0.051,-0.042,0.049,0.424
-0.07,-0.069,0.001,0.07,-0.036,-0.034,-0.007,-0.078,-0.058,-0.052,-0.042,0.053,0.426
-0.064,-0.057,0.007,0.061,-0.036,-0.025,-0.004,-0.078,-0.058,-0.054,-0.041,0.055,0.428
-0.055,-0.051,0.004,0.053,-0.028,-0.024,-0.001,-0.071,-0.052,-0.047,-0.037,0.061,0.43
-0.074,-0.064,0.01,0.07,-0.042,-0.027,-0.004,-0.073,-0.051,-0.047,-0.039,0.059,0.432
-0.073,-0.064,0.009,0.068,-0.041,-0.027,-0.004,-0.083,-0.055,-0.049,-0.04,0.059,0.434
-0.066,-0.058,0.008,0.061,-0.038,-0.025,-0.004,-0.083,-0.055,-0.049,-0.039,0.056,0.436
-0.07,-0.062,0.008,0.065,-0.039,-0.027,-0.002,-0.076,-0.051,-0.049,-0.037,0.046,0.438
-0.074,-0.066,0.008,0.07,-0.041,-0.029,-0.003,-0.078,-0.052,-0.048,-0.039,0.036,0.44
-0.068,-0.067,0.002,0.068,-0.034,-0.032,-0.005,-0.081,-0.053,-0.051,-0.04,0.026,0.442
-0.067,-0.067,0.0,0.067,-0.033,-0.033,-0.002,-0.078,-0.053,-0.051,-0.039,0.023,0.444
-0.065,-0.07,-0.004,0.068,-0.031,-0.037,-0.004,-0.08,-0.053,-0.049,-0.04,0.021,0.446
-0.065,-0.067,-0.002,0.066,-0.031,-0.035,-0.011,-0.087,-0.055,-0.053,-0.044,0.013,0.448
-0.069,-0.066,0.003,0.067,-0.035,-0.032,-0.011,-0.086,-0.059,-0.054,-0.044,0.011,0.45
-0.06,-0.057,0.003,0.058,-0.031,-0.028,-0.007,-0.078,-0.057,-0.054,-0.04,0.011,0.452
-0.057,-0.058,-0.001,0.058,-0.028,-0.029,-0.007,-0.075,-0.056,-0.054,-0.039,0.015,0.454
-0.057,-0.052,0.005,0.055,-0.031,-0.024,-0.005,-0.076,-0.055,-0.051,-0.039,0.015,0.456
-0.064,-0.057,0.007,0.061,-0.035,-0.026,0.001,-0.076,-0.051,-0.048,-0.035,0.011,0.458
-0.068,-0.063,0.004,0.066,-0.036,-0.029,0.003,-0.083,-0.058,-0.049,-0.036,0.006,0.46
-0.067,-0.063,0.004,0.065,-0.036,-0.029,0.004,-0.086,-0.061,-0.048,-0.035,0.006,0.462
-0.068,-0.062,0.006,0.065,-0.036,-0.027,0.001,-0.08,-0.055,-0.041,-0.029,0.013,0.464
-0.062,-0.059,0.004,0.06,-0.033,-0.027,-0.004,-0.077,-0.051,-0.038,-0.025,0.029,0.466
-0.047,-0.039,0.008,0.043,-0.029,-0.016,-0.002,-0.073,-0.047,-0.033,-0.024,0.038,0.468
-0.062,-0.051,0.01,0.057,-0.036,-0.02,-0.001,-0.071,-0.046,-0.033,-0.027,0.039,0.47000000000000003
-0.082,-0.075,0.007,0.078,-0.045,-0.034,-0.002,-0.075,-0.05,-0.037,-0.03,0.043,0.47200000000000003
-0.072,-0.066,0.005,0.07,-0.039,-0.03,-0.001,-0.076,-0.051,-0.036,-0.029,0.049,0.47400000000000003
-0.051,-0.044,0.006,0.048,-0.029,-0.02,0.0,-0.075,-0.048,-0.034,-0.03,0.056,0.47600000000000003
-0.069,-0.061,0.008,0.064,-0.038,-0.027,-0.004,-0.081,-0.053,-0.036,-0.036,0.051,0.47800000000000004
-0.083,-0.076,0.006,0.08,-0.045,-0.035,-0.004,-0.087,-0.063,-0.046,-0.039,0.056,0.48
-0.077,-0.073,0.004,0.075,-0.041,-0.034,-0.004,-0.085,-0.058,-0.046,-0.034,0.064,0.482
-0.073,-0.075,-0.002,0.073,-0.036,-0.037,-0.004,-0.088,-0.058,-0.047,-0.035,0.069,0.484
-0.059,-0.066,-0.006,0.063,-0.026,-0.036,-0.002,-0.088,-0.058,-0.049,-0.032,0.079,0.486
-0.047,-0.049,-0.002,0.048,-0.023,-0.025,0.001,-0.086,-0.058,-0.048,-0.031,0.081,0.488
-0.06,-0.058,0.001,0.059,-0.031,-0.029,-0.001,-0.093,-0.06,-0.054,-0.044,0.077,0.49
-0.071,-0.075,-0.005,0.074,-0.034,-0.04,-0.002,-0.096,-0.061,-0.059,-0.047,0.076,0.492
-0.056,-0.066,-0.01,0.061,-0.022,-0.038,-0.002,-0.093,-0.061,-0.054,-0.041,0.082,0.494
-0.05,-0.052,-0.001,0.051,-0.024,-0.027,-0.001,-0.081,-0.058,-0.049,-0.034,0.089,0.496
-0.071,-0.061,0.01,0.066,-0.04,-0.025,-0.002,-0.073,-0.053,-0.044,-0.031,0.096,0.498
-0.068,-0.057,0.011,0.063,-0.039,-0.023,0.001,-0.071,-0.048,-0.039,-0.022,0.105,0.5
-0.067,-0.055,0.012,0.06,-0.04,-0.021,0.003,-0.068,-0.046,-0.039,-0.02,0.102,0.502
-0.06,-0.046,0.013,0.052,-0.036,-0.017,0.006,-0.066,-0.041,-0.031,-0.014,0.112,0.504
-0.049,-0.036,0.013,0.042,-0.03,-0.013,0.008,-0.06,-0.031,-0.027,-0.01,0.116,0.506
-0.074,-0.057,0.017,0.065,-0.045,-0.02,-0.001,-0.07,-0.039,-0.038,-0.021,0.102,0.508
-0.076,-0.054,0.022,0.065,-0.049,-0.017,0.005,-0.069,-0.041,-0.036,-0.02,0.108,0.51
-0.074,-0.049,0.025,0.061,-0.05,-0.012,0.013,-0.062,-0.034,-0.033,-0.019,0.109,0.512
-0.078,-0.045,0.033,0.061,-0.056,-0.005,0.028,-0.064,-0.033,-0.031,-0.019,0.116,0.514
-0.062,-0.026,0.035,0.044,-0.048,0.005,0.047,-0.055,-0.025,-0.024,-0.012,0.126,0.516
-0.052,-0.019,0.033,0.035,-0.043,0.007,0.061,-0.048,-0.02,-0.016,-0.004,0.133,0.518
-0.045,-0.004,0.041,0.025,-0.043,0.018,0.075,-0.042,-0.015,-0.011,-0.004,0.14,0.52
-0.048,-0.001,0.048,0.025,-0.048,0.023,0.081,-0.035,-0.008,-0.008,-0.004,0.144,0.522
-0.054,-0.003,0.051,0.029,-0.053,0.024,0.094,-0.035,-0.005,-0.008,-0.003,0.157,0.524
-0.04,0.011,0.051,0.015,-0.046,0.031,0.107,-0.028,0.003,-0.004,0.003,0.169,0.526
-0.034,0.022,0.056,0.006,-0.046,0.038,0.119,-0.025,0.0,-0.005,0.002,0.175,0.528
-0.04,0.019,0.059,0.01,-0.049,0.039,0.13,-0.019,0.0,-0.004,0.001,0.177,0.53
-0.059,0.003,0.062,0.028,-0.06,0.033,0.131,-0.017,0.0,-0.003,0.001,0.178,0.532
-0.042,0.019,0.061,0.012,-0.052,0.04,0.139,-0.013,0.007,-0.004,0.006,0.187,0.534
-0.032,0.036,0.068,-0.003,-0.05,0.053,0.137,-0.01,0.007,-0.003,0.004,0.192,0.536
-0.054,0.017,0.071,0.019,-0.063,0.044,0.127,-0.01,0.008,-0.005,0.003,0.199,0.538
-0.056,0.014,0.071,0.021,-0.063,0.042,0.109,-0.01,0.01,-0.006,0.003,0.21,0.54
-0.031,0.034,0.064,-0.002,-0.047,0.048,0.082,-0.01,0.012,-0.004,0.006,0.217,0.542
-0.023,0.035,0.058,-0.006,-0.041,0.046,0.056,-0.007,0.016,-0.003,0.011,0.219,0.544
-0.021,0.029,0.05,-0.004,-0.036,0.04,0.022,-0.009,0.019,-0.003,0.011,0.226,0.546
-0.023,0.028,0.051,-0.003,-0.037,0.04,-0.019,-0.025,0.013,-0.013,0.009,0.227,0.548
-0.016,0.038,0.054,-0.011,-0.036,0.047,-0.027,-0.044,0.002,-0.027,0.008,0.231,0.55
-0.012,0.045,0.058,-0.016,-0.035,0.052,-0.03,-0.06,-0.001,-0.029,0.003,0.238,0.552
-0.016,0.036,0.051,-0.01,-0.033,0.044,-0.037,-0.076,-0.01,-0.036,0.002,0.244,0.554
0.0,0.048,0.048,-0.025,-0.024,0.048,-0.04,-0.076,-0.01,-0.034,0.009,0.255,0.556
-0.014,0.03,0.045,-0.008,-0.029,0.037,-0.057,-0.08,-0.015,-0.037,0.006,0.258,0.558
-0.019,0.018,0.037,0.001,-0.028,0.027,-0.07,-0.091,-0.025,-0.042,0.003,0.252,0.56
-0.006,0.027,0.033,-0.011,-0.02,0.03,-0.07,-0.096,-0.026,-0.041,0.001,0.162,0.562
-0.005,0.022,0.028,-0.009,-0.016,0.024,-0.065,-0.092,-0.025,-0.041,0.005,0.023,0.5640000000000001
-0.009,0.012,0.021,-0.002,-0.016,0.017,-0.065,-0.09,-0.033,-0.041,0.001,-0.094,0.5660000000000001
-0.004,0.038,0.042,-0.017,-0.023,0.04,-0.059,-0.091,-0.038,-0.041,0.003,-0.18,0.5680000000000001
-0.008,0.045,0.053,-0.018,-0.03,0.049,-0.057,-0.091,-0.034,-0.039,0.002,-0.245,0.5700000000000001
-0.017,0.029,0.046,-0.005,-0.031,0.038,-0.055,-0.094,-0.037,-0.044,0.001,-0.299,0.5720000000000001
-0.016,0.022,0.038,-0.003,-0.027,0.03,-0.055,-0.093,-0.034,-0.041,0.003,-0.345,0.5740000000000001
-0.014,0.015,0.03,0.0,-0.022,0.022,-0.052,-0.086,-0.03,-0.036,0.0,-0.381,0.5760000000000001
-0.011,0.004,0.016,0.003,-0.013,0.011,-0.042,-0.08,-0.027,-0.031,0.004,-0.401,0.578
-0.004,-0.004,0.001,0.004,-0.003,-0.002,-0.032,-0.075,-0.023,-0.022,0.011,-0.413,0.58
-0.014,-0.021,-0.007,0.018,-0.002,-0.014,-0.022,-0.068,-0.02,-0.021,0.005,-0.428,0.582
-0.027,-0.04,-0.012,0.033,-0.008,-0.026,-0.025,-0.08,-0.035,-0.032,-0.002,-0.448,0.584
-0.026,-0.048,-0.022,0.037,-0.002,-0.035,-0.032,-0.101,-0.059,-0.054,-0.012,-0.468,0.586
-0.012,-0.035,-0.024,0.024,0.005,-0.03,-0.036,-0.113,-0.073,-0.064,-0.021,-0.476,0.588
0.004,-0.023,-0.026,0.009,0.014,-0.024,-0.037,-0.111,-0.07,-0.06,-0.019,-0.48,0.59
0.006,-0.022,-0.028,0.007,0.017,-0.025,-0.045,-0.106,-0.064,-0.054,-0.016,-0.488,0.592
-0.02,-0.051,-0.031,0.035,0.006,-0.042,-0.058,-0.108,-0.069,-0.057,-0.022,-0.504,0.594
-0.04,-0.07,-0.029,0.056,-0.006,-0.05,-0.062,-0.111,-0.078,-0.064,-0.03,-0.519,0.596
-0.036,-0.068,-0.033,0.052,-0.002,-0.05,-0.055,-0.111,-0.076,-0.062,-0.029,-0.521,0.598
-0.029,-0.07,-0.041,0.049,0.005,-0.055,-0.052,-0.111,-0.076,-0.064,-0.034,-0.534,0.6
-0.03,-0.067,-0.037,0.048,0.003,-0.052,-0.047,-0.11,-0.076,-0.066,-0.031,-0.537,0.602
-0.039,-0.064,-0.025,0.051,-0.007,-0.044,-0.037,-0.096,-0.064,-0.054,-0.025,-0.532,0.604
-0.048,-0.06,-0.012,0.054,-0.018,-0.036,-0.024,-0.088,-0.059,-0.048,-0.022,-0.528,0.606
-0.038,-0.05,-0.012,0.044,-0.013,-0.031,-0.014,-0.079,-0.053,-0.05,-0.021,-0.529,0.608
-0.043,-0.059,-0.016,0.051,-0.014,-0.038,-0.015,-0.08,-0.055,-0.053,-0.028,-0.54,0.61
-0.057,-0.08,-0.023,0.068,-0.017,-0.051,-0.024,-0.081,-0.063,-0.062,-0.034,-0.549,0.612
-0.069,-0.097,-0.027,0.083,-0.021,-0.062,-0.027,-0.093,-0.073,-0.069,-0.04,-0.557,0.614
-0.058,-0.08,-0.022,0.069,-0.018,-0.051,-0.027,-0.099,-0.076,-0.069,-0.042,-0.561,0.616
-0.053,-0.076,-0.023,0.064,-0.014,-0.05,-0.025,-0.099,-0.075,-0.071,-0.042,-0.572,0.618
-0.054,-0.08,-0.026,0.067,-0.014,-0.053,-0.021,-0.101,-0.078,-0.077,-0.049,-0.579,0.62
-0.059,-0.089,-0.03,0.073,-0.015,-0.06,-0.015,-0.103,-0.081,-0.081,-0.052,-0.577,0.622
-0.045,-0.078,-0.033,0.061,-0.006,-0.056,-0.004,-0.099,-0.074,-0.075,-0.047,-0.571,0.624
-0.04,-0.074,-0.035,0.057,-0.003,-0.055,0.001,-0.09,-0.068,-0.069,-0.047,-0.565,0.626
-0.066,-0.094,-0.028,0.08,-0.019,-0.06,-0.001,-0.092,-0.071,-0.069,-0.054,-0.574,0.628
-0.078,-0.102,-0.024,0.091,-0.026,-0.063,-0.002,-0.093,-0.073,-0.069,-0.058,-0.582,0.63
-0.064,-0.087,-0.023,0.076,-0.02,-0.055,0.004,-0.087,-0.066,-0.07,-0.056,-0.584,0.632
-0.052,-0.069,-0.016,0.06,-0.018,-0.042,0.005,-0.078,-0.06,-0.064,-0.053,-0.584,0.634
-0.057,-0.074,-0.017,0.066,-0.021,-0.045,0.003,-0.075,-0.059,-0.059,-0.052,-0.589,0.636
-0.072,-0.093,-0.022,0.082,-0.025,-0.057,0.002,-0.073,-0.061,-0.062,-0.052,-0.592,0.638
-0.083,-0.1,-0.017,0.091,-0.033,-0.058,-0.004,-0.075,-0.063,-0.066,-0.052,-0.596,0.64
-0.077,-0.09,-0.013,0.083,-0.033,-0.052,0.003,-0.081,-0.064,-0.062,-0.045,-0.594,0.642
-0.056,-0.068,-0.012,0.061,-0.022,-0.039,0.011,-0.073,-0.057,-0.045,-0.039,-0.584,0.644
-0.056,-0.067,-0.012,0.061,-0.022,-0.04,0.013,-0.068,-0.051,-0.038,-0.037,-0.582,0.646
-0.064,-0.072,-0.007,0.068,-0.028,-0.04,0.014,-0.08,-0.049,-0.039,-0.036,-0.584,0.648
-0.057,-0.064,-0.007,0.06,-0.025,-0.035,0.023,-0.081,-0.044,-0.032,-0.032,-0.577,0.65
-0.052,-0.053,-0.002,0.053,-0.025,-0.027,0.022,-0.071,-0.043,-0.02,-0.027,-0.574,0.652
-0.065,-0.066,-0.002,0.065,-0.031,-0.034,0.02,-0.069,-0.038,-0.021,-0.033,-0.583,0.654
-0.065,-0.055,0.01,0.061,-0.038,-0.023,0.039,-0.033,-0.008,-0.017,-0.041,-0.588,0.656
-0.086,-0.043,0.043,0.065,-0.065,0.0,0.078,0.055,0.057,-0.004,-0.061,-0.603,0.658
-0.111,-0.043,0.068,0.076,-0.089,0.013,0.149,0.22,0.184,0.034,-0.08,-0.618,0.66
-0.099,-0.008,0.091,0.053,-0.096,0.041,0.223,0.464,0.383,0.13,-0.063,-0.607,0.662
-0.075,0.043,0.118,0.015,-0.096,0.08,0.243,0.655,0.58,0.266,0.003,-0.557,0.664
-0.029,0.104,0.133,-0.037,-0.081,0.118,0.238,0.757,0.733,0.417,0.111,-0.471,0.666
0.033,0.186,0.153,-0.11,-0.06,0.17,0.223,0.815,0.841,0.559,0.227,-0.381,0.668
0.084,0.252,0.168,-0.168,-0.041,0.21,0.203,0.852,0.935,0.699,0.356,-0.289,0.67
0.164,0.334,0.17,-0.25,-0.003,0.252,0.2,0.85,1.024,0.86,0.529,-0.171,0.672
0.246,0.426,0.181,-0.336,0.033,0.304,0.168,0.737,1.077,1.058,0.755,-0.026,0.674
0.335,0.525,0.189,-0.43,0.073,0.358,0.084,0.494,1.044,1.263,1.033,0.161,0.676
0.45,0.643,0.193,-0.547,0.128,0.417,-0.04,0.123,0.923,1.455,1.372,0.397,0.678
0.595,0.783,0.188,-0.688,0.203,0.485,-0.215,-0.333,0.749,1.653,1.751,0.667,0.68
0.791,0.907,0.116,-0.849,0.338,0.512,-0.45,-0.768,0.598,1.908,2.167,0.948,0.682
0.955,0.97,0.015,-0.963,0.47,0.492,-0.687,-1.122,0.409,2.088,2.477,1.162,0.684
1.032,0.866,-0.166,-0.949,0.599,0.351,-0.844,-1.387,0.125,2.022,2.484,1.18,0.686
0.999,0.65,-0.349,-0.825,0.674,0.151,-0.911,-1.615,-0.23,1.676,2.17,0.999,0.6880000000000001
0.866,0.465,-0.401,-0.665,0.634,0.032,-0.937,-1.824,-0.627,1.134,1.661,0.724,0.6900000000000001
0.704,0.292,-0.412,-0.497,0.558,-0.06,-0.924,-1.971,-1.025,0.485,1.061,0.403,0.6920000000000001
0.525,0.136,-0.39,-0.331,0.458,-0.127,-0.879,-2.093,-1.429,-0.242,0.426,0.073,0.6940000000000001
0.376,0.04,-0.335,-0.208,0.355,-0.147,-0.854,-2.201,-1.81,-0.945,-0.147,-0.21,0.6960000000000001
0.264,-0.03,-0.294,-0.117,0.279,-0.162,-0.865,-2.257,-2.065,-1.421,-0.542,-0.421,0.6980000000000001
0.174,-0.098,-0.271,-0.038,0.222,-0.184,-0.858,-2.196,-2.098,-1.572,-0.705,-0.541,0.7000000000000001
0.137,-0.145,-0.282,0.005,0.209,-0.214,-0.806,-1.996,-1.934,-1.489,-0.714,-0.585,0.7020000000000001
0.107,-0.203,-0.31,0.048,0.209,-0.257,-0.762,-1.76,-1.725,-1.355,-0.7,-0.612,0.704
0.069,-0.248,-0.317,0.09,0.193,-0.282,-0.717,-1.548,-1.538,-1.23,-0.665,-0.618,0.706
0.048,-0.233,-0.281,0.093,0.165,-0.257,-0.664,-1.366,-1.369,-1.106,-0.618,-0.608,0.708
0.037,-0.188,-0.224,0.076,0.131,-0.206,-0.584,-1.178,-1.182,-0.96,-0.542,-0.574,0.71
0.048,-0.148,-0.196,0.05,0.122,-0.171,-0.463,-0.94,-0.945,-0.768,-0.43,-0.522,0.712
0.028,-0.147,-0.176,0.06,0.102,-0.162,-0.354,-0.731,-0.743,-0.606,-0.352,-0.491,0.714
0.008,-0.147,-0.155,0.07,0.081,-0.15,-0.264,-0.581,-0.6,-0.5,-0.304,-0.461,0.716
-0.013,-0.158,-0.145,0.086,0.065,-0.152,-0.186,-0.454,-0.484,-0.414,-0.259,-0.427,0.718
-0.032,-0.161,-0.128,0.096,0.048,-0.144,-0.122,-0.347,-0.383,-0.337,-0.223,-0.385,0.72
-0.039,-0.147,-0.108,0.092,0.034,-0.127,-0.072,-0.252,-0.294,-0.269,-0.19,-0.334,0.722
-0.048,-0.135,-0.088,0.091,0.02,-0.111,-0.034,-0.181,-0.225,-0.22,-0.163,-0.282,0.724
-0.057,-0.127,-0.069,0.092,0.007,-0.098,-0.009,-0.131,-0.172,-0.187,-0.145,-0.231,0.726
-0.055,-0.107,-0.052,0.081,-0.001,-0.08,0.003,-0.097,-0.139,-0.164,-0.135,-0.186,0.728
-0.057,-0.107,-0.049,0.082,-0.004,-0.078,0.008,-0.075,-0.121,-0.154,-0.129,-0.168,0.73
-0.064,-0.118,-0.054,0.091,-0.005,-0.086,0.011,-0.065,-0.111,-0.148,-0.13,-0.156,0.732
-0.057,-0.112,-0.054,0.085,-0.001,-0.083,0.016,-0.048,-0.093,-0.134,-0.125,-0.135,0.734
-0.055,-0.105,-0.05,0.08,-0.003,-0.078,0.023,-0.032,-0.076,-0.121,-0.121,-0.116,0.736
-0.062,-0.109,-0.047,0.085,-0.007,-0.078,0.037,-0.02,-0.066,-0.107,-0.117,-0.092,0.738
-0.057,-0.104,-0.047,0.08,-0.005,-0.076,0.044,-0.011,-0.056,-0.1,-0.108,-0.063,0.74
-0.067,-0.109,-0.042,0.088,-0.013,-0.075,0.051,-0.005,-0.051,-0.096,-0.107,-0.044,0.742
-0.072,-0.113,-0.041,0.093,-0.015,-0.076,0.059,-0.002,-0.045,-0.089,-0.103,-0.025,0.744
-0.064,-0.111,-0.047,0.087,-0.008,-0.079,0.059,-0.001,-0.04,-0.084,-0.103,-0.004,0.746
-0.062,-0.107,-0.045,0.085,-0.008,-0.076,0.063,0.008,-0.028,-0.081,-0.1,0.018,0.748
-0.067,-0.109,-0.042,0.087,-0.013,-0.075,0.061,0.01,-0.025,-0.082,-0.097,0.033,0.75
-0.065,-0.11,-0.045,0.088,-0.01,-0.077,0.064,0.015,-0.021,-0.075,-0.098,0.056,0.752
-0.059,-0.1,-0.041,0.08,-0.009,-0.071,0.071,0.025,-0.012,-0.068,-0.095,0.074,0.754
-0.05,-0.087,-0.037,0.068,-0.006,-0.062,0.081,0.036,-0.003,-0.059,-0.089,0.088,0.756
-0.062,-0.105,-0.043,0.083,-0.01,-0.073,0.079,0.04,0.002,-0.056,-0.087,0.099,0.758
-0.072,-0.11,-0.038,0.091,-0.017,-0.073,0.081,0.036,0.002,-0.061,-0.087,0.114,0.76
-0.051,-0.084,-0.033,0.068,-0.009,-0.058,0.085,0.046,0.002,-0.061,-0.084,0.134,0.762
-0.053,-0.084,-0.031,0.068,-0.012,-0.057,0.082,0.051,0.003,-0.066,-0.087,0.142,0.764
-0.08,-0.108,-0.028,0.093,-0.026,-0.068,0.078,0.044,0.002,-0.082,-0.09,0.147,0.766
-0.057,-0.087,-0.03,0.073,-0.014,-0.058,0.082,0.048,0.006,-0.091,-0.089,0.164,0.768
-0.046,-0.078,-0.032,0.062,-0.008,-0.055,0.082,0.058,0.012,-0.1,-0.086,0.177,0.77
-0.06,-0.095,-0.035,0.078,-0.012,-0.066,0.077,0.054,0.01,-0.104,-0.085,0.185,0.772
-0.069,-0.101,-0.032,0.085,-0.018,-0.067,0.074,0.058,0.008,-0.1,-0.083,0.192,0.774
-0.08,-0.107,-0.028,0.093,-0.026,-0.068,0.074,0.058,0.01,-0.097,-0.081,0.2,0.776
-0.067,-0.096,-0.029,0.082,-0.018,-0.062,0.082,0.06,0.019,-0.087,-0.073,0.218,0.778
-0.06,-0.09,-0.03,0.075,-0.015,-0.06,0.08,0.061,0.02,-0.083,-0.071,0.227,0.78
-0.062,-0.089,-0.028,0.075,-0.017,-0.058,0.084,0.063,0.02,-0.079,-0.068,0.241,0.782
-0.06,-0.082,-0.022,0.071,-0.019,-0.052,0.094,0.066,0.027,-0.069,-0.066,0.257,0.784
-0.059,-0.081,-0.022,0.07,-0.019,-0.052,0.097,0.069,0.03,-0.062,-0.064,0.268,0.786
-0.06,-0.082,-0.022,0.07,-0.018,-0.052,0.092,0.069,0.026,-0.061,-0.065,0.275,0.788
-0.064,-0.084,-0.02,0.075,-0.022,-0.053,0.092,0.072,0.025,-0.061,-0.064,0.283,0.79
-0.053,-0.08,-0.027,0.066,-0.013,-0.054,0.089,0.076,0.033,-0.056,-0.065,0.298,0.792
-0.059,-0.084,-0.025,0.071,-0.018,-0.054,0.084,0.078,0.032,-0.059,-0.069,0.305,0.794
-0.066,-0.09,-0.024,0.078,-0.022,-0.057,0.081,0.075,0.028,-0.061,-0.075,0.315,0.796
-0.046,-0.076,-0.03,0.061,-0.007,-0.053,0.089,0.083,0.038,-0.05,-0.072,0.333,0.798
-0.029,-0.06,-0.03,0.045,0.0,-0.045,0.094,0.091,0.043,-0.043,-0.07,0.353,0.8
-0.042,-0.066,-0.025,0.054,-0.009,-0.045,0.088,0.086,0.04,-0.049,-0.075,0.366,0.802
-0.065,-0.092,-0.027,0.079,-0.019,-0.06,0.087,0.078,0.03,-0.054,-0.084,0.377,0.804
-0.072,-0.106,-0.034,0.089,-0.019,-0.069,0.091,0.078,0.027,-0.053,-0.084,0.396,0.806
-0.066,-0.096,-0.03,0.081,-0.018,-0.063,0.092,0.078,0.028,-0.047,-0.082,0.414,0.808
-0.07,-0.096,-0.027,0.082,-0.022,-0.061,0.084,0.08,0.029,-0.041,-0.08,0.426,0.81
-0.072,-0.1,-0.028,0.086,-0.023,-0.064,0.084,0.086,0.038,-0.037,-0.076,0.442,0.812
-0.065,-0.094,-0.03,0.08,-0.018,-0.063,0.094,0.093,0.043,-0.036,-0.073,0.454,0.8140000000000001
-0.055,-0.087,-0.031,0.071,-0.012,-0.06,0.101,0.098,0.042,-0.034,-0.072,0.467,0.8160000000000001
-0.055,-0.087,-0.033,0.07,-0.01,-0.061,0.1,0.098,0.045,-0.026,-0.067,0.479,0.8180000000000001
-0.052,-0.084,-0.032,0.068,-0.01,-0.058,0.097,0.101,0.052,-0.024,-0.064,0.485,0.8200000000000001
-0.037,-0.075,-0.038,0.056,0.0,-0.057,0.097,0.104,0.056,-0.024,-0.065,0.495,0.8220000000000001
-0.039,-0.076,-0.037,0.058,-0.001,-0.057,0.097,0.109,0.055,-0.024,-0.067,0.51,0.8240000000000001
-0.045,-0.084,-0.039,0.065,-0.003,-0.062,0.102,0.115,0.058,-0.021,-0.069,0.52,0.8260000000000001
-0.047,-0.087,-0.04,0.067,-0.003,-0.064,0.099,0.113,0.061,-0.018,-0.075,0.524,0.8280000000000001
-0.062,-0.099,-0.037,0.08,-0.012,-0.068,0.097,0.113,0.055,-0.024,-0.078,0.527,0.8300000000000001
-0.057,-0.1,-0.042,0.078,-0.008,-0.07,0.1,0.116,0.056,-0.02,-0.076,0.536,0.8320000000000001
-0.055,-0.097,-0.042,0.075,-0.006,-0.07,0.098,0.118,0.063,-0.016,-0.074,0.537,0.834
-0.051,-0.085,-0.034,0.068,-0.009,-0.059,0.097,0.121,0.069,-0.012,-0.067,0.543,0.836
-0.041,-0.076,-0.035,0.059,-0.002,-0.055,0.093,0.128,0.073,-0.009,-0.062,0.545,0.838
-0.047,-0.087,-0.04,0.068,-0.004,-0.063,0.081,0.122,0.067,-0.019,-0.074,0.538,0.84
-0.057,-0.088,-0.031,0.072,-0.013,-0.06,0.087,0.123,0.066,-0.021,-0.075,0.55,0.842
-0.044,-0.074,-0.03,0.06,-0.007,-0.052,0.098,0.129,0.075,-0.021,-0.069,0.563,0.844
-0.048,-0.076,-0.028,0.062,-0.01,-0.053,0.094,0.129,0.078,-0.021,-0.072,0.571,0.846
-0.053,-0.082,-0.029,0.068,-0.012,-0.055,0.092,0.124,0.074,-0.02,-0.075,0.572,0.848
-0.037,-0.072,-0.034,0.055,-0.001,-0.052,0.095,0.133,0.078,-0.012,-0.07,0.575,0.85
-0.029,-0.069,-0.04,0.049,0.004,-0.055,0.092,0.142,0.081,-0.006,-0.072,0.578,0.852
-0.029,-0.069,-0.04,0.05,0.005,-0.055,0.087,0.145,0.083,-0.003,-0.075,0.583,0.854
-0.027,-0.065,-0.038,0.045,0.005,-0.051,0.087,0.149,0.088,-0.003,-0.074,0.585,0.856
-0.043,-0.078,-0.035,0.06,-0.005,-0.057,0.085,0.156,0.091,-0.004,-0.075,0.588,0.858
-0.05,-0.08,-0.03,0.065,-0.01,-0.055,0.084,0.151,0.085,-0.006,-0.074,0.591,0.86
-0.044,-0.069,-0.024,0.057,-0.011,-0.047,0.084,0.154,0.088,-0.004,-0.07,0.597,0.862
-0.046,-0.075,-0.029,0.061,-0.009,-0.052,0.078,0.151,0.085,-0.004,-0.07,0.601,0.864
-0.047,-0.081,-0.035,0.064,-0.005,-0.057,0.079,0.151,0.086,-0.001,-0.067,0.607,0.866
-0.032,-0.059,-0.027,0.045,-0.003,-0.043,0.082,0.159,0.094,0.005,-0.062,0.614,0.868
-0.009,-0.034,-0.025,0.022,0.007,-0.03,0.083,0.164,0.105,0.014,-0.057,0.622,0.87
-0.012,-0.044,-0.032,0.027,0.01,-0.038,0.077,0.166,0.106,0.01,-0.06,0.621,0.872
-0.024,-0.062,-0.038,0.043,0.008,-0.051,0.068,0.166,0.103,0.004,-0.062,0.623,0.874
-0.032,-0.059,-0.027,0.046,-0.003,-0.042,0.066,0.176,0.109,0.004,-0.059,0.624,0.876
-0.044,-0.063,-0.02,0.054,-0.013,-0.042,0.068,0.176,0.113,0.004,-0.06,0.62,0.878
-0.04,-0.062,-0.023,0.05,-0.008,-0.043,0.067,0.179,0.118,0.009,-0.064,0.627,0.88
-0.04,-0.062,-0.022,0.051,-0.008,-0.043,0.061,0.181,0.116,0.009,-0.063,0.633,0.882
-0.036,-0.063,-0.027,0.05,-0.005,-0.045,0.066,0.179,0.116,0.009,-0.054,0.641,0.884
-0.025,-0.057,-0.032,0.04,0.004,-0.045,0.074,0.191,0.123,0.016,-0.049,0.653,0.886
-0.025,-0.057,-0.032,0.04,0.004,-0.044,0.069,0.199,0.128,0.017,-0.051,0.653,0.888
-0.029,-0.057,-0.028,0.043,0.0,-0.043,0.064,0.199,0.128,0.017,-0.053,0.656,0.89
-0.03,-0.062,-0.032,0.045,0.001,-0.047,0.058,0.199,0.128,0.021,-0.055,0.659,0.892
-0.025,-0.059,-0.034,0.042,0.005,-0.047,0.059,0.206,0.134,0.022,-0.054,0.664,0.894
-0.014,-0.048,-0.034,0.031,0.009,-0.041,0.056,0.213,0.138,0.019,-0.055,0.665,0.896
-0.003,-0.04,-0.037,0.021,0.017,-0.039,0.058,0.222,0.146,0.025,-0.051,0.671,0.898
0.008,-0.027,-0.036,0.009,0.022,-0.031,0.06,0.23,0.154,0.035,-0.047,0.676,0.9
-0.004,-0.031,-0.027,0.017,0.012,-0.029,0.053,0.232,0.156,0.034,-0.05,0.673,0.902
-0.008,-0.033,-0.026,0.021,0.009,-0.03,0.047,0.236,0.156,0.034,-0.049,0.677,0.904
-0.012,-0.044,-0.032,0.028,0.009,-0.038,0.043,0.237,0.151,0.037,-0.05,0.681,0.906
0.001,-0.026,-0.027,0.012,0.014,-0.027,0.049,0.244,0.161,0.049,-0.045,0.692,0.908
-0.002,-0.025,-0.023,0.013,0.01,-0.024,0.046,0.254,0.173,0.057,-0.035,0.697,0.91
-0.005,-0.031,-0.026,0.018,0.01,-0.028,0.046,0.26,0.177,0.059,-0.027,0.704,0.912
0.016,-0.012,-0.027,-0.003,0.021,-0.019,0.044,0.271,0.188,0.067,-0.019,0.717,0.914
0.011,-0.017,-0.028,0.002,0.019,-0.022,0.033,0.278,0.187,0.073,-0.019,0.718,0.916
0.004,-0.02,-0.024,0.009,0.014,-0.022,0.026,0.281,0.191,0.072,-0.019,0.716,0.918
0.003,-0.014,-0.017,0.005,0.009,-0.016,0.022,0.285,0.197,0.073,-0.014,0.723,0.92
0.012,-0.003,-0.015,-0.004,0.013,-0.009,0.018,0.289,0.199,0.077,-0.011,0.727,0.922
0.015,-0.001,-0.016,-0.007,0.016,-0.009,0.016,0.293,0.204,0.077,-0.012,0.729,0.924
0.019,-0.006,-0.025,-0.006,0.022,-0.015,0.021,0.302,0.209,0.084,-0.009,0.739,0.926
0.023,-0.004,-0.028,-0.01,0.025,-0.016,0.019,0.309,0.215,0.089,-0.009,0.741,0.928
0.022,-0.005,-0.027,-0.009,0.024,-0.016,0.014,0.322,0.223,0.092,-0.006,0.744,0.93
0.018,-0.01,-0.028,-0.004,0.022,-0.019,0.014,0.331,0.232,0.098,0.001,0.752,0.932
0.036,0.001,-0.035,-0.019,0.035,-0.017,0.02,0.341,0.239,0.107,0.006,0.762,0.934
0.053,0.017,-0.037,-0.035,0.044,-0.01,0.019,0.352,0.245,0.112,0.014,0.77,0.936
0.051,0.016,-0.035,-0.033,0.043,-0.011,0.02,0.36,0.251,0.12,0.018,0.781,0.9380000000000001
0.065,0.027,-0.038,-0.047,0.051,-0.005,0.022,0.368,0.257,0.126,0.025,0.79,0.9400000000000001
0.077,0.04,-0.037,-0.058,0.057,0.001,0.021,0.373,0.265,0.127,0.029,0.794,0.9420000000000001
0.061,0.029,-0.032,-0.045,0.047,-0.002,0.011,0.376,0.264,0.128,0.029,0.798,0.9440000000000001
0.054,0.022,-0.032,-0.039,0.042,-0.004,0.001,0.373,0.263,0.125,0.031,0.799,0.9460000000000001
0.063,0.031,-0.032,-0.047,0.047,0.0,-0.01,0.366,0.255,0.12,0.019,0.794,0.9480000000000001
0.055,0.025,-0.03,-0.039,0.043,-0.002,-0.016,0.363,0.257,0.118,0.013,0.794,0.9500000000000001
0.061,0.036,-0.025,-0.048,0.042,0.005,-0.017,0.366,0.26,0.122,0.019,0.8,0.9520000000000001
0.067,0.05,-0.017,-0.058,0.042,0.017,-0.021,0.368,0.26,0.125,0.028,0.81,0.9540000000000001
0.078,0.064,-0.015,-0.071,0.046,0.025,-0.029,0.368,0.262,0.13,0.034,0.822,0.9560000000000001
0.087,0.063,-0.024,-0.075,0.056,0.02,-0.033,0.371,0.261,0.138,0.044,0.833,0.9580000000000001
0.09,0.058,-0.033,-0.074,0.062,0.012,-0.037,0.367,0.259,0.14,0.051,0.843,0.96
0.095,0.056,-0.039,-0.075,0.067,0.008,-0.04,0.361,0.259,0.138,0.059,0.848,0.962
0.098,0.053,-0.045,-0.075,0.072,0.005,-0.046,0.358,0.254,0.14,0.063,0.855,0.964
0.108,0.061,-0.047,-0.084,0.078,0.008,-0.05,0.354,0.252,0.141,0.069,0.865,0.966
0.121,0.081,-0.04,-0.101,0.08,0.02,-0.052,0.355,0.254,0.145,0.071,0.87,0.968
0.102,0.068,-0.035,-0.084,0.068,0.016,-0.065,0.343,0.244,0.135,0.061,0.865,0.97
0.116,0.07,-0.046,-0.093,0.082,0.011,-0.062,0.335,0.239,0.133,0.066,0.872,0.972
0.132,0.087,-0.046,-0.109,0.089,0.02,-0.067,0.335,0.236,0.137,0.07,0.876,0.974
0.136,0.092,-0.044,-0.113,0.09,0.024,-0.075,0.328,0.228,0.136,0.073,0.88,0.976
0.13,0.083,-0.047,-0.107,0.088,0.018,-0.084,0.322,0.222,0.133,0.07,0.883,0.978
0.124,0.077,-0.047,-0.101,0.085,0.016,-0.098,0.312,0.211,0.127,0.069,0.888,0.98
0.135,0.085,-0.05,-0.11,0.092,0.018,-0.102,0.299,0.202,0.125,0.069,0.892,0.982
0.131,0.076,-0.055,-0.104,0.092,0.011,-0.106,0.288,0.196,0.12,0.069,0.896,0.984
0.137,0.075,-0.062,-0.107,0.099,0.006,-0.101,0.28,0.192,0.115,0.072,0.903,0.986
0.157,0.096,-0.061,-0.126,0.109,0.017,-0.098,0.27,0.191,0.115,0.074,0.902,0.988
0.163,0.103,-0.059,-0.133,0.11,0.022,-0.095,0.264,0.186,0.115,0.074,0.905,0.99
0.147,0.089,-0.058,-0.118,0.103,0.015,-0.095,0.254,0.174,0.107,0.074,0.908,0.992
0.13,0.067,-0.063,-0.098,0.096,0.003,-0.103,0.24,0.161,0.1,0.071,0.91,0.994
0.145,0.074,-0.071,-0.109,0.108,0.002,-0.1,0.229,0.158,0.101,0.079,0.923,0.996
0.163,0.085,-0.078,-0.124,0.12,0.003,-0.098,0.228,0.158,0.102,0.092,0.933,0.998
0.15,0.076,-0.074,-0.114,0.112,0.002,-0.115,0.217,0.144,0.093,0.092,0.93,1.0
0.145,0.073,-0.072,-0.109,0.107,0.001,-0.125,0.194,0.131,0.082,0.089,0.928,1.002
0.147,0.077,-0.07,-0.112,0.108,0.003,-0.125,0.181,0.12,0.078,0.084,0.933,1.004
0.143,0.07,-0.073,-0.106,0.108,-0.001,-0.12,0.166,0.109,0.077,0.076,0.936,1.006
0.145,0.069,-0.076,-0.106,0.111,-0.003,-0.112,0.154,0.101,0.072,0.072,0.93,1.008
0.137,0.057,-0.08,-0.097,0.108,-0.012,-0.113,0.148,0.095,0.065,0.065,0.925,1.01
0.127,0.049,-0.078,-0.088,0.102,-0.015,-0.112,0.132,0.084,0.055,0.056,0.924,1.012
0.126,0.047,-0.079,-0.087,0.102,-0.016,-0.113,0.118,0.073,0.049,0.048,0.922,1.014
0.127,0.051,-0.076,-0.089,0.101,-0.012,-0.11,0.109,0.064,0.04,0.046,0.917,1.016
0.119,0.049,-0.07,-0.084,0.094,-0.01,-0.105,0.101,0.057,0.037,0.044,0.907,1.018
0.107,0.041,-0.066,-0.074,0.087,-0.013,-0.105,0.091,0.055,0.035,0.044,0.903,1.02
0.111,0.054,-0.057,-0.083,0.084,-0.002,-0.097,0.082,0.055,0.03,0.043,0.908,1.022
0.109,0.054,-0.055,-0.082,0.083,0.0,-0.092,0.074,0.048,0.027,0.039,0.905,1.024
0.087,0.019,-0.067,-0.053,0.077,-0.024,-0.095,0.053,0.035,0.014,0.033,0.903,1.026
0.081,0.021,-0.06,-0.051,0.071,-0.02,-0.087,0.038,0.025,0.009,0.032,0.908,1.028
0.087,0.031,-0.056,-0.059,0.072,-0.013,-0.085,0.037,0.025,0.012,0.031,0.905,1.03
0.072,0.015,-0.057,-0.044,0.065,-0.022,-0.087,0.028,0.02,0.008,0.023,0.897,1.032
0.066,0.006,-0.06,-0.036,0.063,-0.027,-0.077,0.015,0.015,0.007,0.016,0.895,1.034
0.071,0.008,-0.063,-0.04,0.067,-0.027,-0.07,0.008,0.01,0.007,0.011,0.89,1.036
0.062,0.002,-0.06,-0.032,0.06,-0.029,-0.064,0.007,0.01,0.004,0.006,0.891,1.038
0.046,-0.007,-0.054,-0.02,0.05,-0.031,-0.059,0.002,0.003,-0.006,0.001,0.892,1.04
0.039,-0.012,-0.05,-0.013,0.045,-0.031,-0.054,-0.008,-0.007,-0.015,-0.009,0.892,1.042
0.038,-0.011,-0.049,-0.013,0.044,-0.029,-0.047,-0.013,-0.011,-0.018,-0.016,0.897,1.044
0.026,-0.019,-0.045,-0.004,0.035,-0.032,-0.047,-0.02,-0.013,-0.022,-0.017,0.898,1.046
0.028,-0.014,-0.042,-0.008,0.034,-0.027,-0.046,-0.022,-0.015,-0.016,-0.01,0.908,1.048
0.029,-0.016,-0.045,-0.006,0.038,-0.031,-0.05,-0.017,-0.016,-0.007,-0.006,0.915,1.05
0.013,-0.032,-0.045,0.009,0.03,-0.038,-0.044,-0.023,-0.018,-0.003,-0.005,0.921,1.052
0.013,-0.029,-0.041,0.008,0.027,-0.035,-0.032,-0.025,-0.011,-0.001,0.001,0.928,1.054
0.005,-0.034,-0.04,0.015,0.022,-0.038,-0.032,-0.029,-0.013,-0.001,-0.004,0.919,1.056
-0.011,-0.051,-0.04,0.031,0.014,-0.045,-0.031,-0.035,-0.015,-0.001,-0.012,0.915,1.058
-0.004,-0.043,-0.038,0.024,0.018,-0.041,-0.029,-0.035,-0.018,-0.006,-0.012,0.914,1.06
-0.004,-0.044,-0.04,0.024,0.018,-0.042,-0.035,-0.038,-0.026,-0.011,-0.019,0.912,1.062
-0.007,-0.039,-0.032,0.022,0.012,-0.035,-0.03,-0.045,-0.03,-0.011,-0.028,0.914,1.064
-0.002,-0.027,-0.025,0.015,0.012,-0.026,-0.022,-0.044,-0.031,-0.009,-0.03,0.915,1.066
-0.003,-0.026,-0.023,0.015,0.01,-0.024,-0.02,-0.042,-0.03,-0.008,-0.034,0.913,1.068
-0.012,-0.031,-0.018,0.022,0.004,-0.024,-0.014,-0.044,-0.031,-0.011,-0.035,0.918,1.07
-0.022,-0.041,-0.02,0.031,-0.001,-0.03,-0.01,-0.05,-0.035,-0.016,-0.039,0.923,1.072
-0.024,-0.046,-0.022,0.035,-0.001,-0.034,-0.011,-0.051,-0.04,-0.022,-0.04,0.931,1.074
-0.034,-0.051,-0.017,0.043,-0.008,-0.035,-0.012,-0.053,-0.041,-0.029,-0.044,0.937,1.076
-0.03,-0.05,-0.02,0.041,-0.004,-0.035,-0.004,-0.05,-0.038,-0.026,-0.037,0.956,1.078
-0.017,-0.044,-0.027,0.031,0.005,-0.035,0.003,-0.039,-0.029,-0.017,-0.029,0.968,1.08
-0.025,-0.054,-0.029,0.04,0.002,-0.042,0.003,-0.035,-0.031,-0.018,-0.032,0.97,1.082
-0.043,-0.072,-0.029,0.058,-0.007,-0.051,0.003,-0.043,-0.043,-0.031,-0.042,0.966,1.084
-0.04,-0.061,-0.021,0.05,-0.008,-0.042,0.003,-0.05,-0.047,-0.041,-0.049,0.968,1.086
-0.032,-0.037,-0.005,0.035,-0.013,-0.021,0.003,-0.051,-0.049,-0.041,-0.049,0.972,1.088
-0.039,-0.036,0.003,0.038,-0.021,-0.017,0.004,-0.049,-0.051,-0.039,-0.051,0.976,1.09
-0.049,-0.049,0.0,0.049,-0.025,-0.025,0.001,-0.048,-0.054,-0.044,-0.054,0.976,1.092
-0.059,-0.062,-0.002,0.06,-0.028,-0.033,-0.002,-0.053,-0.057,-0.048,-0.055,0.979,1.094
-0.053,-0.059,-0.006,0.055,-0.024,-0.032,0.006,-0.05,-0.058,-0.048,-0.057,0.983,1.096
-0.044,-0.063,-0.019,0.054,-0.013,-0.042,0.009,-0.042,-0.052,-0.046,-0.057,0.99,1.098
-0.045,-0.067,-0.022,0.055,-0.01,-0.045,0.008,-0.04,-0.051,-0.047,-0.057,0.991,1.1
-0.029,-0.054,-0.025,0.042,-0.003,-0.04,0.014,-0.04,-0.048,-0.044,-0.059,1.002,1.102
-0.03,-0.062,-0.032,0.046,0.002,-0.048,0.013,-0.035,-0.05,-0.053,-0.075,0.862,1.104
-0.059,-0.089,-0.03,0.074,-0.014,-0.06,0.005,-0.038,-0.058,-0.067,-0.091,0.424,1.106
-0.062,-0.085,-0.023,0.073,-0.02,-0.053,0.006,-0.046,-0.058,-0.074,-0.097,0.04,1.108
-0.055,-0.066,-0.012,0.06,-0.022,-0.039,0.014,-0.043,-0.059,-0.074,-0.098,-0.193,1.11
-0.067,-0.065,0.002,0.066,-0.035,-0.032,0.011,-0.04,-0.062,-0.076,-0.103,-0.343,1.112
-0.067,-0.059,0.008,0.062,-0.038,-0.025,0.007,-0.038,-0.063,-0.077,-0.108,-0.436,1.114
-0.062,-0.055,0.007,0.058,-0.035,-0.023,0.004,-0.031,-0.061,-0.077,-0.112,-0.506,1.116
-0.067,-0.069,-0.002,0.068,-0.033,-0.035,0.004,-0.025,-0.056,-0.076,-0.11,-0.554,1.118
-0.074,-0.079,-0.005,0.077,-0.035,-0.043,0.006,-0.025,-0.056,-0.077,-0.107,-0.579,1.12
-0.07,-0.075,-0.005,0.073,-0.033,-0.04,0.013,-0.021,-0.051,-0.072,-0.103,-0.594,1.122
-0.059,-0.069,-0.01,0.064,-0.026,-0.039,0.021,-0.014,-0.04,-0.066,-0.098,-0.605,1.124
-0.065,-0.079,-0.014,0.073,-0.026,-0.047,0.026,-0.013,-0.038,-0.069,-0.098,-0.612,1.1260000000000001
-0.052,-0.067,-0.015,0.06,-0.019,-0.04,0.031,-0.01,-0.035,-0.074,-0.103,-0.618,1.1280000000000001
-0.051,-0.058,-0.008,0.054,-0.022,-0.032,0.029,-0.003,-0.032,-0.081,-0.113,-0.63,1.1300000000000001
-0.063,-0.067,-0.004,0.066,-0.029,-0.035,0.024,-0.003,-0.033,-0.09,-0.12,-0.649,1.1320000000000001
-0.077,-0.082,-0.005,0.08,-0.036,-0.043,0.018,-0.008,-0.039,-0.093,-0.123,-0.716,1.1340000000000001
-0.085,-0.093,-0.009,0.089,-0.038,-0.051,0.014,-0.011,-0.046,-0.095,-0.127,-0.823,1.1360000000000001
-0.085,-0.097,-0.012,0.091,-0.036,-0.055,0.019,-0.008,-0.041,-0.089,-0.125,-0.897,1.1380000000000001
-0.08,-0.092,-0.012,0.085,-0.033,-0.053,0.029,-0.003,-0.03,-0.081,-0.12,-0.929,1.1400000000000001
-0.071,-0.082,-0.011,0.077,-0.03,-0.046,0.034,0.004,-0.018,-0.077,-0.115,-0.949,1.1420000000000001
-0.064,-0.073,-0.009,0.069,-0.028,-0.041,0.035,0.018,-0.01,-0.072,-0.107,-0.957,1.1440000000000001
-0.072,-0.087,-0.015,0.079,-0.028,-0.051,0.031,0.027,-0.011,-0.072,-0.11,-0.959,1.1460000000000001
-0.078,-0.103,-0.025,0.09,-0.026,-0.063,0.023,0.023,-0.015,-0.074,-0.115,-0.958,1.1480000000000001
-0.079,-0.101,-0.022,0.09,-0.028,-0.062,0.026,0.026,-0.013,-0.07,-0.115,-0.956,1.1500000000000001
-0.068,-0.085,-0.017,0.076,-0.026,-0.051,0.036,0.03,-0.005,-0.058,-0.109,-0.953,1.1520000000000001
-0.053,-0.063,-0.009,0.058,-0.022,-0.037,0.039,0.036,-0.001,-0.053,-0.104,-0.954,1.154
-0.05,-0.056,-0.005,0.053,-0.022,-0.031,0.038,0.04,0.0,-0.049,-0.106,-0.97,1.156
-0.076,-0.085,-0.009,0.081,-0.033,-0.047,0.037,0.038,0.0,-0.053,-0.11,-0.992,1.158
-0.089,-0.098,-0.009,0.094,-0.039,-0.053,0.039,0.033,0.0,-0.063,-0.115,-1.008,1.16
-0.086,-0.086,0.0,0.087,-0.043,-0.043,0.037,0.035,-0.002,-0.068,-0.117,-1.02,1.162
-0.083,-0.083,0.0,0.083,-0.041,-0.041,0.036,0.043,0.0,-0.07,-0.113,-1.016,1.164
-0.076,-0.081,-0.005,0.078,-0.036,-0.042,0.041,0.046,0.003,-0.066,-0.105,-1.009,1.166
-0.068,-0.077,-0.009,0.073,-0.029,-0.043,0.038,0.044,0.003,-0.062,-0.1,-1.003,1.168
-0.069,-0.076,-0.008,0.072,-0.029,-0.042,0.039,0.043,0.008,-0.057,-0.097,-1.0,1.17
-0.071,-0.078,-0.006,0.074,-0.032,-0.043,0.041,0.051,0.017,-0.047,-0.09,-0.998,1.172
-0.073,-0.078,-0.004,0.076,-0.035,-0.041,0.041,0.05,0.021,-0.046,-0.095,-1.007,1.174
-0.051,-0.055,-0.005,0.053,-0.023,-0.03,0.044,0.05,0.019,-0.041,-0.104,-1.018,1.176
-0.056,-0.054,0.003,0.055,-0.03,-0.026,0.04,0.048,0.018,-0.044,-0.116,-1.042,1.178
-0.055,-0.047,0.008,0.051,-0.031,-0.021,0.044,0.047,0.022,-0.049,-0.12,-1.055,1.18
-0.052,-0.036,0.016,0.045,-0.034,-0.01,0.043,0.051,0.022,-0.049,-0.118,-1.061,1.182
-0.07,-0.052,0.018,0.061,-0.043,-0.017,0.031,0.045,0.018,-0.049,-0.12,-1.068,1.184
-0.072,-0.067,0.006,0.07,-0.039,-0.03,0.034,0.043,0.017,-0.043,-0.113,-1.058,1.186
-0.069,-0.069,0.0,0.07,-0.036,-0.035,0.036,0.043,0.018,-0.036,-0.1,-1.042,1.188
-0.062,-0.069,-0.007,0.065,-0.027,-0.038,0.036,0.046,0.023,-0.024,-0.087,-1.03,1.19
-0.059,-0.064,-0.005,0.062,-0.027,-0.035,0.036,0.045,0.026,-0.014,-0.08,-1.028,1.192
-0.062,-0.066,-0.005,0.065,-0.028,-0.035,0.036,0.046,0.022,-0.016,-0.08,-1.035,1.194
-0.058,-0.063,-0.004,0.061,-0.026,-0.033,0.036,0.045,0.02,-0.021,-0.083,-1.047,1.196
-0.051,-0.056,-0.005,0.054,-0.023,-0.031,0.037,0.046,0.023,-0.021,-0.081,-1.058,1.198
-0.045,-0.052,-0.007,0.048,-0.019,-0.03,0.035,0.047,0.025,-0.021,-0.081,-1.07,1.2
-0.057,-0.06,-0.003,0.059,-0.026,-0.032,0.023,0.038,0.018,-0.026,-0.087,-1.084,1.202
-0.058,-0.062,-0.004,0.06,-0.026,-0.032,0.015,0.033,0.017,-0.019,-0.085,-1.084,1.204
-0.059,-0.063,-0.005,0.062,-0.028,-0.034,0.016,0.03,0.021,-0.016,-0.075,-1.074,1.206
-0.043,-0.048,-0.005,0.045,-0.019,-0.027,0.023,0.036,0.024,-0.015,-0.072,-1.065,1.208
-0.036,-0.043,-0.007,0.039,-0.014,-0.025,0.016,0.036,0.023,-0.011,-0.072,-1.06,1.21
-0.045,-0.046,-0.002,0.045,-0.021,-0.024,0.014,0.032,0.017,-0.008,-0.072,-1.065,1.212
-0.046,-0.039,0.007,0.042,-0.026,-0.016,0.014,0.035,0.02,-0.009,-0.07,-1.073,1.214
-0.053,-0.045,0.008,0.048,-0.031,-0.019,0.008,0.03,0.018,-0.008,-0.072,-1.086,1.216
-0.054,-0.052,0.002,0.054,-0.028,-0.026,0.007,0.023,0.013,-0.011,-0.071,-1.1,1.218
-0.048,-0.05,-0.002,0.049,-0.023,-0.025,0.013,0.025,0.018,-0.007,-0.063,-1.101,1.22
-0.046,-0.046,0.0,0.046,-0.023,-0.023,0.015,0.025,0.02,-0.002,-0.056,-1.098,1.222
-0.04,-0.039,0.001,0.04,-0.02,-0.019,0.02,0.026,0.022,0.001,-0.05,-1.091,1.224
-0.049,-0.048,0.001,0.049,-0.025,-0.024,0.018,0.023,0.023,0.002,-0.05,-1.094,1.226
-0.056,-0.057,0.0,0.057,-0.028,-0.028,0.011,0.017,0.015,-0.004,-0.056,-1.096,1.228
-0.055,-0.057,-0.001,0.055,-0.026,-0.03,0.003,0.015,0.012,-0.006,-0.058,-1.094,1.23
-0.059,-0.055,0.004,0.056,-0.031,-0.026,0.001,0.01,0.006,-0.006,-0.054,-1.097,1.232
-0.03,-0.03,0.001,0.03,-0.016,-0.015,0.005,0.014,0.014,-0.001,-0.04,-1.098,1.234
-0.016,-0.014,0.002,0.015,-0.009,-0.006,0.006,0.013,0.018,0.002,-0.041,-1.115,1.236
-0.022,-0.023,-0.002,0.022,-0.01,-0.012,0.004,0.014,0.017,0.004,-0.042,-1.129,1.238
-0.033,-0.034,-0.002,0.033,-0.016,-0.017,0.003,0.009,0.015,-0.003,-0.048,-1.143,1.24
-0.051,-0.049,0.003,0.05,-0.027,-0.022,0.002,0.002,0.005,-0.011,-0.059,-1.151,1.242
-0.06,-0.052,0.008,0.056,-0.034,-0.022,0.0,0.003,0.0,-0.011,-0.062,-1.151,1.244
-0.057,-0.057,0.0,0.057,-0.029,-0.028,-0.001,0.002,0.0,-0.018,-0.067,-1.148,1.246
-0.045,-0.042,0.003,0.042,-0.023,-0.02,0.001,0.002,-0.001,-0.022,-0.066,-1.139,1.248
-0.04,-0.031,0.009,0.035,-0.024,-0.011,-0.005,-0.004,-0.005,-0.021,-0.064,-1.136,1.25
-0.052,-0.04,0.013,0.046,-0.033,-0.012,-0.006,-0.01,-0.006,-0.016,-0.058,-1.128,1.252
-0.045,-0.038,0.007,0.041,-0.026,-0.016,0.001,-0.01,-0.008,-0.011,-0.052,-1.121,1.254
-0.039,-0.037,0.002,0.037,-0.02,-0.017,0.001,-0.005,-0.005,-0.006,-0.04,-1.124,1.256
-0.047,-0.044,0.002,0.045,-0.025,-0.02,0.0,-0.007,-0.006,-0.006,-0.037,-1.134,1.258
-0.05,-0.055,-0.005,0.052,-0.022,-0.031,-0.002,-0.012,-0.008,-0.011,-0.042,-1.148,1.26
-0.049,-0.056,-0.007,0.052,-0.02,-0.032,-0.002,-0.013,-0.009,-0.011,-0.042,-1.151,1.262
-0.055,-0.059,-0.005,0.057,-0.025,-0.033,0.0,-0.013,-0.01,-0.012,-0.042,-1.147,1.264
-0.057,-0.061,-0.003,0.059,-0.026,-0.032,0.002,-0.016,-0.01,-0.013,-0.041,-1.136,1.266
-0.035,-0.042,-0.007,0.038,-0.013,-0.024,-0.002,-0.015,-0.011,-0.016,-0.04,-1.126,1.268
-0.037,-0.036,0.0,0.037,-0.018,-0.018,-0.007,-0.018,-0.015,-0.026,-0.05,-1.126,1.27
-0.037,-0.034,0.003,0.035,-0.02,-0.015,-0.007,-0.02,-0.02,-0.031,-0.055,-1.121,1.272
-0.043,-0.038,0.005,0.04,-0.024,-0.015,-0.007,-0.023,-0.018,-0.031,-0.049,-1.123,1.274
-0.055,-0.046,0.009,0.05,-0.032,-0.019,-0.009,-0.03,-0.019,-0.034,-0.053,-1.129,1.276
-0.054,-0.051,0.003,0.052,-0.029,-0.024,-0.007,-0.031,-0.021,-0.034,-0.057,-1.133,1.278
-0.053,-0.054,-0.002,0.053,-0.026,-0.028,-0.001,-0.028,-0.02,-0.029,-0.052,-1.13,1.28
-0.052,-0.054,-0.002,0.052,-0.026,-0.028,0.001,-0.025,-0.023,-0.027,-0.049,-1.135,1.282
-0.05,-0.051,-0.001,0.05,-0.024,-0.026,0.001,-0.03,-0.025,-0.024,-0.05,-1.139,1.284
-0.046,-0.044,0.003,0.045,-0.024,-0.02,0.001,-0.031,-0.022,-0.024,-0.049,-1.136,1.286
-0.035,-0.024,0.01,0.03,-0.022,-0.008,0.001,-0.032,-0.023,-0.024,-0.05,-1.124,1.288
-0.03,-0.018,0.012,0.024,-0.021,-0.003,-0.006,-0.03,-0.022,-0.024,-0.049,-1.113,1.29
-0.044,-0.028,0.017,0.035,-0.03,-0.006,-0.01,-0.031,-0.027,-0.03,-0.052,-1.111,1.292
-0.052,-0.035,0.017,0.044,-0.034,-0.009,-0.008,-0.035,-0.031,-0.036,-0.055,-1.113,1.294
-0.046,-0.035,0.012,0.041,-0.03,-0.011,-0.005,-0.038,-0.03,-0.033,-0.054,-1.115,1.296
-0.037,-0.036,0.001,0.037,-0.019,-0.017,-0.003,-0.036,-0.03,-0.028,-0.05,-1.116,1.298
-0.037,-0.039,-0.002,0.038,-0.018,-0.02,-0.001,-0.034,-0.03,-0.029,-0.049,-1.121,1.3
-0.037,-0.039,-0.002,0.037,-0.018,-0.019,-0.002,-0.032,-0.03,-0.028,-0.05,-1.124,1.302
-0.037,-0.041,-0.004,0.039,-0.016,-0.022,0.0,-0.035,-0.03,-0.03,-0.056,-1.133,1.304
-0.046,-0.049,-0.002,0.047,-0.022,-0.025,0.001,-0.035,-0.03,-0.033,-0.062,-1.136,1.306
-0.055,-0.042,0.013,0.048,-0.034,-0.015,0.001,-0.043,-0.038,-0.039,-0.067,-1.133,1.308
-0.051,-0.026,0.026,0.039,-0.039,0.0,0.001,-0.044,-0.04,-0.036,-0.065,-1.129,1.31
-0.042,-0.016,0.026,0.029,-0.034,0.006,0.001,-0.038,-0.036,-0.032,-0.054,-1.113,1.312
-0.037,-0.018,0.018,0.027,-0.028,0.0,0.001,-0.038,-0.035,-0.03,-0.047,-1.113,1.314
-0.04,-0.017,0.023,0.028,-0.031,0.003,0.001,-0.038,-0.036,-0.029,-0.047,-1.117,1.316
-0.057,-0.033,0.024,0.045,-0.041,-0.004,-0.002,-0.04,-0.041,-0.034,-0.054,-1.128,1.318
-0.077,-0.055,0.022,0.066,-0.05,-0.016,-0.009,-0.047,-0.048,-0.04,-0.065,-1.149,1.32
-0.071,-0.051,0.02,0.062,-0.045,-0.015,-0.007,-0.048,-0.05,-0.042,-0.067,-1.148,1.322
-0.062,-0.039,0.023,0.05,-0.043,-0.008,-0.002,-0.046,-0.042,-0.039,-0.067,-1.129,1.324
-0.052,-0.033,0.019,0.042,-0.035,-0.007,0.003,-0.04,-0.035,-0.033,-0.059,-1.113,1.326
-0.04,-0.022,0.018,0.031,-0.028,-0.002,0.0,-0.038,-0.034,-0.031,-0.055,-1.11,1.328
-0.056,-0.036,0.02,0.046,-0.037,-0.007,-0.007,-0.043,-0.042,-0.036,-0.057,-1.113,1.33
-0.055,-0.042,0.013,0.048,-0.033,-0.015,-0.007,-0.04,-0.043,-0.034,-0.052,-1.111,1.332
-0.049,-0.034,0.015,0.042,-0.033,-0.009,-0.005,-0.038,-0.045,-0.034,-0.05,-1.121,1.334
-0.045,-0.024,0.021,0.034,-0.033,-0.002,-0.004,-0.045,-0.051,-0.037,-0.056,-1.121,1.336
-0.047,-0.024,0.023,0.035,-0.035,0.0,-0.004,-0.045,-0.048,-0.034,-0.06,-1.116,1.338
-0.047,-0.024,0.023,0.035,-0.035,0.0,-0.002,-0.045,-0.045,-0.033,-0.057,-1.11,1.34
-0.027,-0.009,0.018,0.018,-0.022,0.005,0.003,-0.038,-0.039,-0.029,-0.048,-1.103,1.342
-0.034,-0.018,0.016,0.026,-0.025,-0.002,0.001,-0.035,-0.041,-0.029,-0.049,-1.105,1.344
-0.055,-0.044,0.012,0.05,-0.033,-0.016,-0.002,-0.042,-0.048,-0.034,-0.06,-1.111,1.346
-0.056,-0.042,0.014,0.049,-0.035,-0.013,-0.002,-0.048,-0.053,-0.039,-0.069,-1.12,1.348
-0.062,-0.039,0.023,0.05,-0.043,-0.007,-0.002,-0.048,-0.056,-0.043,-0.074,-1.128,1.35
-0.07,-0.042,0.028,0.055,-0.048,-0.007,-0.002,-0.046,-0.054,-0.037,-0.073,-1.124,1.352
-0.067,-0.041,0.026,0.054,-0.046,-0.007,-0.002,-0.043,-0.051,-0.031,-0.064,-1.113,1.354
-0.051,-0.023,0.028,0.037,-0.039,0.002,-0.002,-0.045,-0.046,-0.026,-0.059,-1.111,1.356
-0.056,-0.025,0.031,0.041,-0.044,0.003,-0.002,-0.046,-0.046,-0.031,-0.062,-1.117,1.358
-0.065,-0.034,0.031,0.051,-0.048,-0.002,-0.001,-0.05,-0.051,-0.039,-0.06,-1.116,1.36
-0.046,-0.018,0.028,0.032,-0.037,0.005,0.003,-0.043,-0.046,-0.034,-0.052,-1.11,1.362
-0.054,-0.027,0.027,0.041,-0.041,-0.001,0.002,-0.04,-0.045,-0.032,-0.049,-1.103,1.364
-0.065,-0.044,0.021,0.055,-0.043,-0.012,0.0,-0.046,-0.053,-0.033,-0.05,-1.095,1.366
-0.049,-0.027,0.022,0.038,-0.036,-0.003,0.003,-0.048,-0.053,-0.029,-0.049,-1.083,1.368
-0.049,-0.016,0.034,0.032,-0.041,0.009,0.006,-0.048,-0.053,-0.027,-0.054,-1.088,1.37
-0.06,-0.019,0.041,0.039,-0.05,0.01,0.004,-0.048,-0.048,-0.027,-0.066,-1.098,1.372
-0.067,-0.021,0.046,0.044,-0.056,0.013,-0.006,-0.053,-0.054,-0.038,-0.079,-1.11,1.374
-0.065,-0.014,0.051,0.039,-0.058,0.019,-0.018,-0.06,-0.064,-0.045,-0.085,-1.116,1.3760000000000001
-0.045,-0.004,0.041,0.024,-0.043,0.018,-0.011,-0.058,-0.052,-0.031,-0.069,-1.098,1.3780000000000001
-0.032,-0.002,0.03,0.017,-0.03,0.014,-0.007,-0.049,-0.04,-0.016,-0.055,-1.091,1.3800000000000001
-0.047,-0.023,0.024,0.035,-0.036,0.001,-0.009,-0.048,-0.049,-0.018,-0.054,-1.093,1.3820000000000001
-0.049,-0.03,0.019,0.04,-0.035,-0.006,-0.009,-0.048,-0.052,-0.016,-0.049,-1.086,1.3840000000000001
-0.052,-0.034,0.018,0.042,-0.035,-0.008,-0.007,-0.048,-0.044,-0.013,-0.042,-1.075,1.3860000000000001
-0.05,-0.036,0.014,0.043,-0.031,-0.011,-0.004,-0.047,-0.043,-0.019,-0.044,-1.07,1.3880000000000001
-0.047,-0.029,0.018,0.037,-0.033,-0.005,-0.004,-0.043,-0.045,-0.026,-0.057,-1.071,1.3900000000000001
-0.047,-0.029,0.018,0.038,-0.033,-0.005,-0.001,-0.043,-0.047,-0.029,-0.062,-1.073,1.3920000000000001
-0.054,-0.034,0.02,0.044,-0.037,-0.007,-0.002,-0.048,-0.049,-0.028,-0.062,-1.08,1.3940000000000001
-0.057,-0.031,0.026,0.044,-0.042,-0.002,-0.002,-0.051,-0.057,-0.031,-0.067,-1.085,1.3960000000000001
-0.059,-0.03,0.03,0.045,-0.045,0.0,-0.002,-0.051,-0.058,-0.029,-0.065,-1.077,1.3980000000000001
-0.063,-0.037,0.026,0.05,-0.044,-0.005,-0.002,-0.055,-0.058,-0.023,-0.057,-1.065,1.4000000000000001
-0.06,-0.039,0.021,0.05,-0.041,-0.01,-0.001,-0.054,-0.053,-0.021,-0.052,-1.065,1.4020000000000001
-0.046,-0.023,0.023,0.034,-0.036,0.0,-0.002,-0.052,-0.053,-0.021,-0.05,-1.068,1.4040000000000001
-0.03,0.001,0.031,0.015,-0.031,0.016,0.001,-0.046,-0.046,-0.017,-0.047,-1.068,1.4060000000000001
-0.029,0.003,0.032,0.014,-0.031,0.017,0.001,-0.047,-0.048,-0.023,-0.057,-1.072,1.408
-0.044,-0.003,0.041,0.025,-0.043,0.018,-0.007,-0.055,-0.056,-0.03,-0.064,-1.066,1.41
-0.06,-0.013,0.046,0.037,-0.053,0.016,-0.005,-0.058,-0.06,-0.036,-0.064,-1.056,1.412
-0.056,-0.016,0.04,0.036,-0.047,0.012,0.002,-0.058,-0.064,-0.036,-0.066,-1.05,1.414
-0.038,-0.004,0.034,0.021,-0.036,0.016,0.006,-0.053,-0.054,-0.026,-0.061,-1.045,1.416
-0.042,-0.01,0.032,0.026,-0.037,0.011,0.003,-0.048,-0.05,-0.019,-0.059,-1.047,1.418
-0.047,-0.011,0.036,0.029,-0.041,0.013,0.008,-0.048,-0.05,-0.021,-0.06,-1.053,1.42
-0.053,-0.013,0.04,0.033,-0.047,0.014,0.006,-0.05,-0.053,-0.028,-0.069,-1.063,1.422
-0.058,-0.02,0.038,0.039,-0.048,0.009,0.003,-0.055,-0.056,-0.036,-0.072,-1.063,1.424
-0.06,-0.02,0.039,0.04,-0.049,0.009,0.004,-0.055,-0.055,-0.037,-0.072,-1.052,1.426
-0.049,-0.009,0.04,0.03,-0.045,0.016,0.003,-0.055,-0.056,-0.041,-0.07,-1.044,1.428
-0.039,0.004,0.043,0.017,-0.04,0.023,0.004,-0.054,-0.059,-0.041,-0.064,-1.035,1.43
-0.027,0.012,0.039,0.007,-0.033,0.025,0.006,-0.045,-0.053,-0.031,-0.057,-1.03,1.432
-0.034,-0.001,0.032,0.017,-0.033,0.015,0.0,-0.041,-0.046,-0.027,-0.055,-1.037,1.434
-0.056,-0.021,0.036,0.039,-0.046,0.008,-0.007,-0.05,-0.05,-0.034,-0.06,-1.041,1.436
-0.055,-0.021,0.034,0.038,-0.044,0.007,-0.002,-0.048,-0.051,-0.036,-0.057,-1.04,1.438
-0.049,-0.011,0.038,0.03,-0.043,0.013,0.005,-0.045,-0.05,-0.037,-0.054,-1.043,1.44
-0.05,-0.011,0.039,0.03,-0.044,0.014,-0.004,-0.051,-0.053,-0.039,-0.054,-1.045,1.442
-0.054,-0.007,0.048,0.03,-0.05,0.02,-0.004,-0.055,-0.053,-0.039,-0.051,-1.042,1.444
-0.052,-0.001,0.051,0.027,-0.051,0.026,-0.001,-0.056,-0.056,-0.039,-0.05,-1.043,1.446
-0.057,-0.007,0.05,0.032,-0.053,0.022,-0.002,-0.058,-0.065,-0.041,-0.054,-1.036,1.448
-0.061,-0.014,0.048,0.037,-0.055,0.017,-0.001,-0.061,-0.069,-0.046,-0.055,-1.023,1.45
-0.055,-0.013,0.042,0.034,-0.049,0.014,0.0,-0.062,-0.063,-0.044,-0.057,-1.013,1.452
-0.052,-0.019,0.033,0.035,-0.043,0.007,0.004,-0.054,-0.052,-0.036,-0.054,-1.008,1.454
-0.057,-0.024,0.033,0.04,-0.045,0.004,0.004,-0.053,-0.056,-0.039,-0.055,-1.011,1.456
-0.052,-0.022,0.03,0.037,-0.041,0.005,0.006,-0.052,-0.052,-0.041,-0.054,-1.02,1.458
-0.055,-0.024,0.031,0.04,-0.043,0.004,0.013,-0.05,-0.048,-0.039,-0.062,-1.028,1.46
-0.055,-0.017,0.039,0.036,-0.046,0.011,0.008,-0.053,-0.056,-0.044,-0.069,-1.025,1.462
-0.051,-0.007,0.043,0.029,-0.048,0.018,0.004,-0.051,-0.055,-0.045,-0.065,-1.02,1.464
-0.063,-0.017,0.046,0.04,-0.054,0.014,0.008,-0.048,-0.053,-0.044,-0.067,-1.011,1.466
-0.067,-0.014,0.053,0.04,-0.06,0.02,0.011,-0.055,-0.058,-0.044,-0.07,-0.972,1.468
-0.049,0.0,0.049,0.024,-0.049,0.024,0.006,-0.059,-0.058,-0.038,-0.062,-0.782,1.47
-0.043,0.001,0.043,0.021,-0.043,0.022,0.003,-0.053,-0.053,-0.036,-0.049,-0.526,1.472
-0.041,0.005,0.046,0.019,-0.043,0.026,0.004,-0.043,-0.049,-0.036,-0.042,-0.35,1.474
-0.044,0.003,0.047,0.021,-0.045,0.025,0.003,-0.04,-0.047,-0.039,-0.044,-0.236,1.476
-0.05,0.002,0.052,0.024,-0.051,0.027,0.013,-0.038,-0.045,-0.042,-0.045,-0.158,1.478
-0.067,-0.001,0.066,0.034,-0.067,0.033,0.029,-0.035,-0.046,-0.042,-0.052,-0.109,1.48
-0.07,0.004,0.074,0.032,-0.071,0.039,0.046,-0.038,-0.045,-0.044,-0.057,-0.069,1.482
-0.036,0.039,0.075,-0.001,-0.055,0.057,0.067,-0.027,-0.035,-0.034,-0.039,-0.02,1.484
-0.026,0.054,0.08,-0.014,-0.053,0.067,0.077,-0.011,-0.023,-0.026,-0.029,0.016,1.486
-0.035,0.041,0.076,-0.003,-0.056,0.058,0.082,-0.01,-0.023,-0.022,-0.027,0.038,1.488
-0.029,0.042,0.071,-0.007,-0.05,0.056,0.099,-0.003,-0.015,-0.013,-0.021,0.059,1.49
-0.022,0.047,0.069,-0.013,-0.046,0.058,0.112,0.005,-0.007,-0.006,-0.015,0.067,1.492
-0.035,0.039,0.074,-0.002,-0.054,0.056,0.117,0.003,-0.012,-0.007,-0.019,0.066,1.494
-0.022,0.062,0.084,-0.021,-0.053,0.073,0.128,0.003,-0.015,-0.01,-0.019,0.069,1.496
-0.03,0.069,0.099,-0.019,-0.064,0.084,0.128,0.01,-0.009,-0.012,-0.022,0.067,1.498
-0.054,0.057,0.111,-0.001,-0.083,0.084,0.126,0.003,-0.007,-0.014,-0.029,0.066,1.5
-0.055,0.069,0.124,-0.007,-0.09,0.096,0.127,0.003,-0.01,-0.012,-0.03,0.066,1.502
-0.05,0.085,0.134,-0.018,-0.092,0.109,0.117,0.007,-0.008,-0.008,-0.025,0.072,1.504
-0.042,0.09,0.132,-0.024,-0.087,0.111,0.087,0.008,0.0,-0.004,-0.018,0.086,1.506
-0.037,0.085,0.122,-0.024,-0.079,0.104,0.046,0.01,0.002,-0.001,-0.01,0.098,1.508
-0.026,0.082,0.108,-0.029,-0.067,0.095,0.018,0.01,0.007,0.004,-0.004,0.109,1.51
-0.025,0.077,0.101,-0.026,-0.063,0.088,-0.013,0.004,0.01,0.004,0.0,0.112,1.512
-0.022,0.075,0.097,-0.026,-0.059,0.086,-0.046,-0.01,0.002,0.001,0.001,0.111,1.514
-0.014,0.087,0.101,-0.036,-0.058,0.094,-0.051,-0.023,-0.002,-0.001,-0.005,0.099,1.516
-0.009,0.09,0.099,-0.041,-0.054,0.094,-0.044,-0.035,-0.011,-0.008,-0.019,0.09,1.518
-0.014,0.089,0.104,-0.038,-0.059,0.096,-0.042,-0.051,-0.025,-0.018,-0.034,0.082,1.52
-0.011,0.107,0.118,-0.048,-0.065,0.113,-0.046,-0.061,-0.035,-0.023,-0.039,0.081,1.522
-0.005,0.118,0.123,-0.056,-0.064,0.12,-0.062,-0.06,-0.033,-0.018,-0.027,0.104,1.524
-0.008,0.107,0.115,-0.049,-0.062,0.111,-0.077,-0.061,-0.031,-0.009,-0.014,0.126,1.526
-0.004,0.094,0.098,-0.046,-0.051,0.096,-0.075,-0.063,-0.033,-0.003,-0.005,0.144,1.528
0.0,0.09,0.089,-0.045,-0.044,0.09,-0.065,-0.063,-0.03,-0.001,-0.004,0.156,1.53
-0.005,0.08,0.084,-0.038,-0.044,0.081,-0.06,-0.058,-0.033,-0.001,-0.001,0.152,1.532
-0.011,0.085,0.097,-0.037,-0.053,0.091,-0.053,-0.058,-0.033,-0.001,0.001,0.152,1.534
-0.012,0.102,0.114,-0.045,-0.063,0.108,-0.052,-0.061,-0.035,-0.006,-0.002,0.151,1.536
-0.016,0.099,0.116,-0.041,-0.066,0.108,-0.051,-0.06,-0.04,-0.01,-0.002,0.155,1.538
-0.015,0.092,0.107,-0.038,-0.061,0.1,-0.05,-0.061,-0.04,-0.011,-0.007,0.162,1.54
-0.003,0.092,0.095,-0.044,-0.049,0.093,-0.044,-0.051,-0.033,-0.008,-0.004,0.171,1.542
0.021,0.105,0.084,-0.064,-0.031,0.094,-0.034,-0.035,-0.018,0.001,0.004,0.187,1.544
0.003,0.074,0.07,-0.038,-0.033,0.073,-0.039,-0.031,-0.023,-0.001,0.001,0.19,1.546
-0.016,0.041,0.058,-0.013,-0.037,0.05,-0.042,-0.048,-0.043,-0.011,-0.009,0.198,1.548
-0.008,0.044,0.052,-0.017,-0.029,0.049,-0.039,-0.06,-0.05,-0.016,-0.015,0.205,1.55
-0.016,0.02,0.036,-0.001,-0.025,0.028,-0.042,-0.075,-0.063,-0.032,-0.034,0.192,1.552
-0.017,0.003,0.02,0.007,-0.018,0.013,-0.046,-0.089,-0.083,-0.053,-0.047,0.182,1.554
-0.017,0.008,0.024,0.005,-0.021,0.016,-0.048,-0.093,-0.088,-0.057,-0.057,0.179,1.556
-0.022,0.009,0.031,0.007,-0.027,0.02,-0.049,-0.094,-0.087,-0.054,-0.06,0.182,1.558
-0.023,0.008,0.032,0.008,-0.027,0.02,-0.052,-0.093,-0.086,-0.059,-0.066,0.185,1.56
-0.024,0.007,0.031,0.009,-0.028,0.019,-0.055,-0.088,-0.086,-0.065,-0.07,0.197,1.562
-0.027,0.008,0.035,0.01,-0.031,0.022,-0.054,-0.083,-0.088,-0.061,-0.067,0.218,1.564
-0.029,0.002,0.031,0.014,-0.03,0.016,-0.053,-0.079,-0.084,-0.054,-0.06,0.242,1.566
-0.033,-0.005,0.028,0.018,-0.031,0.012,-0.037,-0.075,-0.078,-0.042,-0.049,0.258,1.568
-0.039,-0.003,0.036,0.021,-0.038,0.016,-0.014,-0.061,-0.066,-0.031,-0.047,0.26,1.57
-0.054,-0.004,0.05,0.029,-0.053,0.023,-0.005,-0.053,-0.058,-0.029,-0.05,0.257,1.572
-0.055,0.0,0.055,0.027,-0.054,0.027,-0.011,-0.055,-0.06,-0.034,-0.049,0.26,1.574
-0.053,0.006,0.059,0.023,-0.056,0.033,-0.022,-0.06,-0.068,-0.043,-0.049,0.267,1.576
-0.048,0.004,0.053,0.021,-0.05,0.028,-0.029,-0.06,-0.075,-0.042,-0.044,0.283,1.578
-0.046,-0.012,0.034,0.029,-0.039,0.01,-0.035,-0.062,-0.078,-0.044,-0.042,0.293,1.58
-0.068,-0.043,0.026,0.055,-0.048,-0.008,-0.029,-0.075,-0.088,-0.053,-0.047,0.3,1.582
-0.071,-0.038,0.033,0.054,-0.051,-0.002,-0.012,-0.078,-0.086,-0.052,-0.047,0.316,1.584
-0.062,-0.026,0.035,0.045,-0.048,0.005,-0.002,-0.072,-0.078,-0.046,-0.047,0.33,1.586
-0.057,-0.023,0.034,0.039,-0.046,0.006,0.001,-0.068,-0.081,-0.052,-0.054,0.326,1.588
-0.068,-0.028,0.039,0.048,-0.054,0.006,0.001,-0.068,-0.088,-0.062,-0.07,0.32,1.59
-0.067,-0.026,0.041,0.047,-0.054,0.008,0.005,-0.066,-0.083,-0.063,-0.077,0.324,1.592
-0.07,-0.023,0.046,0.047,-0.058,0.011,0.003,-0.066,-0.085,-0.065,-0.078,0.323,1.594
-0.065,-0.009,0.056,0.038,-0.061,0.023,0.003,-0.068,-0.083,-0.061,-0.074,0.33,1.596
-0.063,-0.005,0.057,0.034,-0.059,0.026,0.0,-0.061,-0.075,-0.052,-0.067,0.336,1.598
-0.064,-0.004,0.06,0.034,-0.063,0.028,-0.005,-0.057,-0.078,-0.052,-0.063,0.35,1.6
-0.077,-0.01,0.066,0.043,-0.071,0.029,-0.012,-0.061,-0.083,-0.055,-0.062,0.359,1.602
-0.083,-0.016,0.066,0.05,-0.074,0.025,-0.002,-0.062,-0.083,-0.056,-0.062,0.366,1.604
-0.062,-0.006,0.056,0.035,-0.059,0.025,0.016,-0.053,-0.071,-0.049,-0.057,0.381,1.606
-0.061,0.001,0.062,0.03,-0.062,0.03,0.021,-0.048,-0.063,-0.041,-0.057,0.389,1.608
-0.066,0.002,0.069,0.032,-0.067,0.036,0.021,-0.043,-0.058,-0.038,-0.05,0.394,1.61
-0.068,-0.004,0.064,0.036,-0.066,0.03,0.021,-0.043,-0.056,-0.035,-0.045,0.398,1.612
-0.067,-0.004,0.063,0.034,-0.065,0.03,0.024,-0.04,-0.058,-0.03,-0.037,0.405,1.614
-0.057,0.009,0.066,0.024,-0.061,0.038,0.026,-0.031,-0.046,-0.019,-0.032,0.41,1.616
-0.08,-0.007,0.073,0.043,-0.077,0.033,0.021,-0.033,-0.047,-0.021,-0.037,0.404,1.618
-0.095,-0.021,0.075,0.058,-0.085,0.027,0.018,-0.043,-0.056,-0.026,-0.043,0.399,1.62
-0.098,-0.007,0.09,0.053,-0.094,0.042,0.028,-0.026,-0.034,-0.017,-0.053,0.403,1.622
-0.112,0.009,0.121,0.051,-0.116,0.065,0.061,0.033,0.025,0.001,-0.072,0.394,1.624
-0.11,0.032,0.142,0.039,-0.127,0.087,0.13,0.175,0.154,0.051,-0.09,0.378,1.6260000000000001
-0.102,0.071,0.173,0.015,-0.138,0.122,0.204,0.388,0.353,0.153,-0.085,0.368,1.6280000000000001
-0.074,0.132,0.206,-0.028,-0.141,0.169,0.238,0.595,0.559,0.296,-0.03,0.393,1.6300000000000001
-0.042,0.173,0.215,-0.066,-0.129,0.194,0.213,0.716,0.715,0.449,0.076,0.449,1.6320000000000001
0.003,0.213,0.21,-0.108,-0.104,0.212,0.177,0.78,0.825,0.586,0.198,0.522,1.6340000000000001
0.071,0.274,0.203,-0.172,-0.067,0.238,0.147,0.843,0.928,0.723,0.328,0.61,1.6360000000000001
0.13,0.312,0.182,-0.22,-0.025,0.247,0.131,0.891,1.036,0.876,0.493,0.719,1.6380000000000001
0.207,0.356,0.149,-0.282,0.03,0.252,0.123,0.863,1.111,1.051,0.714,0.87,1.6400000000000001
0.306,0.446,0.14,-0.376,0.082,0.293,0.071,0.694,1.082,1.232,1.005,1.072,1.6420000000000001
0.427,0.558,0.131,-0.492,0.148,0.345,-0.037,0.399,0.951,1.404,1.371,1.326,1.6440000000000001
0.563,0.672,0.109,-0.618,0.226,0.391,-0.186,-0.015,0.724,1.545,1.778,1.62,1.6460000000000001
0.73,0.78,0.051,-0.755,0.34,0.415,-0.384,-0.445,0.505,1.727,2.234,1.938,1.6480000000000001
0.896,0.88,-0.016,-0.889,0.456,0.432,-0.625,-0.85,0.293,1.909,2.632,2.212,1.6500000000000001
0.995,0.862,-0.133,-0.928,0.563,0.365,-0.767,-1.149,0.016,1.867,2.711,2.281,1.6520000000000001
0.977,0.7,-0.276,-0.838,0.627,0.212,-0.778,-1.319,-0.312,1.541,2.397,2.093,1.6540000000000001
0.826,0.552,-0.274,-0.689,0.549,0.139,-0.768,-1.51,-0.689,1.0,1.828,1.773,1.6560000000000001
0.619,0.4,-0.219,-0.51,0.419,0.091,-0.751,-1.697,-1.086,0.338,1.136,1.4,1.6580000000000001
0.431,0.271,-0.16,-0.351,0.296,0.055,-0.72,-1.845,-1.458,-0.362,0.424,1.026,1.6600000000000001
0.262,0.181,-0.081,-0.221,0.171,0.05,-0.663,-1.942,-1.783,-1.047,-0.254,0.687,1.6620000000000001
0.129,0.101,-0.028,-0.115,0.078,0.037,-0.639,-2.0,-1.995,-1.526,-0.717,0.443,1.6640000000000001
0.039,0.045,0.005,-0.041,0.017,0.025,-0.633,-1.981,-2.039,-1.679,-0.89,0.316,1.666
-0.008,0.011,0.018,-0.002,-0.014,0.015,-0.593,-1.855,-1.946,-1.629,-0.906,0.252,1.668
-0.032,-0.046,-0.014,0.039,-0.008,-0.03,-0.552,-1.682,-1.786,-1.507,-0.87,0.207,1.67
-0.03,-0.082,-0.052,0.056,0.012,-0.068,-0.538,-1.497,-1.599,-1.352,-0.799,0.196,1.672
-0.029,-0.079,-0.05,0.055,0.01,-0.065,-0.517,-1.313,-1.415,-1.2,-0.726,0.192,1.674
-0.039,-0.064,-0.025,0.052,-0.007,-0.046,-0.46,-1.119,-1.225,-1.044,-0.642,0.193,1.676
-0.042,-0.059,-0.017,0.05,-0.012,-0.038,-0.38,-0.895,-1.004,-0.857,-0.532,0.204,1.678
-0.055,-0.07,-0.015,0.063,-0.02,-0.043,-0.299,-0.701,-0.806,-0.693,-0.443,0.214,1.68
-0.072,-0.061,0.011,0.067,-0.041,-0.025,-0.229,-0.552,-0.656,-0.568,-0.38,0.235,1.682
-0.072,-0.047,0.025,0.06,-0.049,-0.01,-0.165,-0.431,-0.533,-0.471,-0.326,0.271,1.684
-0.064,-0.033,0.031,0.049,-0.048,-0.001,-0.099,-0.322,-0.423,-0.384,-0.279,0.318,1.686
-0.058,-0.022,0.036,0.041,-0.047,0.008,-0.05,-0.226,-0.327,-0.308,-0.238,0.366,1.688
-0.054,-0.019,0.036,0.037,-0.045,0.008,-0.017,-0.146,-0.251,-0.243,-0.2,0.406,1.69
-0.067,-0.026,0.041,0.047,-0.054,0.008,0.001,-0.095,-0.199,-0.203,-0.175,0.444,1.692
-0.077,-0.034,0.043,0.055,-0.061,0.005,0.011,-0.073,-0.171,-0.177,-0.163,0.472,1.694
-0.077,-0.031,0.046,0.054,-0.062,0.008,0.023,-0.053,-0.141,-0.155,-0.15,0.502,1.696
-0.083,-0.03,0.053,0.056,-0.069,0.012,0.032,-0.036,-0.118,-0.139,-0.137,0.529,1.698
-0.082,-0.022,0.061,0.052,-0.071,0.02,0.034,-0.02,-0.101,-0.124,-0.128,0.553,1.7
-0.079,-0.016,0.063,0.047,-0.071,0.023,0.036,-0.007,-0.091,-0.115,-0.125,0.565,1.702
-0.082,-0.013,0.068,0.047,-0.075,0.028,0.047,0.003,-0.075,-0.107,-0.122,0.581,1.704
-0.083,-0.006,0.077,0.044,-0.08,0.036,0.052,0.016,-0.066,-0.099,-0.115,0.601,1.706
-0.08,0.002,0.082,0.039,-0.081,0.041,0.051,0.016,-0.063,-0.099,-0.115,0.61,1.708
-0.08,0.005,0.085,0.038,-0.082,0.045,0.054,0.022,-0.051,-0.091,-0.113,0.616,1.71
-0.066,0.009,0.075,0.029,-0.07,0.043,0.057,0.028,-0.041,-0.079,-0.107,0.626,1.712
-0.052,0.026,0.078,0.012,-0.065,0.052,0.056,0.042,-0.029,-0.067,-0.103,0.639,1.714
-0.069,0.019,0.088,0.025,-0.078,0.053,0.052,0.049,-0.025,-0.066,-0.103,0.638,1.716
-0.085,0.011,0.096,0.037,-0.09,0.053,0.057,0.048,-0.025,-0.069,-0.105,0.638,1.718
-0.09,0.009,0.099,0.04,-0.094,0.053,0.058,0.052,-0.021,-0.064,-0.103,0.653,1.72
-0.075,0.017,0.092,0.03,-0.084,0.053,0.057,0.056,-0.019,-0.063,-0.097,0.67,1.722
-0.057,0.023,0.08,0.017,-0.068,0.052,0.059,0.061,-0.012,-0.059,-0.093,0.691,1.724
-0.064,0.014,0.078,0.025,-0.071,0.046,0.062,0.056,-0.01,-0.057,-0.09,0.702,1.726
-0.07,0.012,0.082,0.029,-0.077,0.046,0.069,0.057,-0.005,-0.052,-0.084,0.705,1.728
-0.069,0.012,0.082,0.029,-0.076,0.047,0.071,0.066,-0.002,-0.051,-0.082,0.699,1.73
-0.07,0.011,0.081,0.03,-0.076,0.045,0.077,0.073,0.003,-0.051,-0.082,0.689,1.732
-0.069,0.014,0.084,0.027,-0.076,0.049,0.074,0.073,0.005,-0.047,-0.082,0.684,1.734
-0.063,0.03,0.093,0.017,-0.078,0.062,0.069,0.073,0.002,-0.046,-0.082,0.676,1.736
-0.057,0.037,0.094,0.01,-0.076,0.065,0.064,0.073,0.003,-0.046,-0.081,0.674,1.738
-0.052,0.039,0.09,0.007,-0.071,0.065,0.061,0.073,0.007,-0.044,-0.08,0.683,1.74
-0.056,0.039,0.096,0.009,-0.076,0.068,0.062,0.073,0.007,-0.044,-0.087,0.684,1.742
-0.091,0.014,0.105,0.038,-0.097,0.06,0.054,0.067,0.002,-0.056,-0.1,0.683,1.744
-0.099,0.004,0.103,0.048,-0.101,0.053,0.059,0.063,-0.002,-0.062,-0.105,0.688,1.746
-0.07,0.034,0.104,0.018,-0.087,0.069,0.071,0.068,0.002,-0.054,-0.102,0.697,1.748
-0.056,0.055,0.111,0.001,-0.083,0.083,0.077,0.075,0.008,-0.048,-0.095,0.706,1.75
-0.047,0.061,0.108,-0.008,-0.078,0.085,0.079,0.083,0.012,-0.039,-0.08,0.716,1.752
-0.06,0.049,0.109,0.005,-0.084,0.079,0.075,0.083,0.013,-0.034,-0.077,0.721,1.754
-0.062,0.044,0.106,0.009,-0.084,0.075,0.074,0.083,0.012,-0.034,-0.077,0.719,1.756
-0.062,0.042,0.103,0.009,-0.082,0.073,0.077,0.082,0.015,-0.032,-0.072,0.721,1.758
-0.063,0.041,0.104,0.01,-0.084,0.073,0.079,0.079,0.012,-0.033,-0.074,0.732,1.76
-0.049,0.054,0.103,-0.003,-0.076,0.079,0.074,0.076,0.011,-0.034,-0.074,0.74,1.762
-0.039,0.07,0.108,-0.016,-0.074,0.088,0.07,0.078,0.013,-0.031,-0.072,0.748,1.764
-0.042,0.069,0.111,-0.013,-0.077,0.09,0.077,0.085,0.017,-0.026,-0.072,0.752,1.766
-0.037,0.072,0.109,-0.018,-0.074,0.091,0.087,0.09,0.022,-0.022,-0.074,0.754,1.768
-0.04,0.072,0.112,-0.015,-0.076,0.092,0.084,0.09,0.022,-0.021,-0.082,0.749,1.77
-0.062,0.049,0.111,0.007,-0.086,0.08,0.074,0.085,0.023,-0.029,-0.087,0.744,1.772
-0.06,0.049,0.109,0.005,-0.084,0.078,0.074,0.083,0.023,-0.029,-0.083,0.746,1.774
-0.037,0.072,0.109,-0.018,-0.073,0.091,0.076,0.088,0.03,-0.019,-0.074,0.749,1.776
-0.034,0.073,0.107,-0.019,-0.071,0.089,0.072,0.093,0.033,-0.019,-0.072,0.749,1.778
-0.042,0.064,0.106,-0.01,-0.074,0.086,0.071,0.093,0.028,-0.016,-0.072,0.752,1.78
-0.041,0.065,0.106,-0.011,-0.073,0.086,0.069,0.093,0.027,-0.011,-0.072,0.756,1.782
-0.037,0.066,0.104,-0.015,-0.071,0.085,0.069,0.089,0.03,-0.011,-0.072,0.762,1.784
-0.038,0.066,0.104,-0.014,-0.071,0.085,0.071,0.095,0.035,-0.008,-0.072,0.772,1.786
-0.041,0.063,0.104,-0.012,-0.072,0.083,0.074,0.099,0.038,-0.006,-0.073,0.779,1.788
-0.048,0.062,0.11,-0.006,-0.08,0.086,0.071,0.096,0.032,-0.011,-0.077,0.779,1.79
-0.043,0.069,0.111,-0.013,-0.076,0.091,0.074,0.098,0.032,-0.011,-0.078,0.78,1.792
-0.032,0.082,0.114,-0.025,-0.073,0.098,0.077,0.101,0.038,-0.011,-0.075,0.784,1.794
-0.034,0.085,0.119,-0.026,-0.076,0.101,0.067,0.099,0.037,-0.013,-0.077,0.781,1.796
-0.059,0.059,0.118,-0.001,-0.088,0.089,0.058,0.098,0.038,-0.017,-0.085,0.774,1.798
-0.065,0.049,0.115,0.008,-0.09,0.082,0.06,0.094,0.037,-0.015,-0.084,0.782,1.8
-0.047,0.067,0.113,-0.011,-0.08,0.09,0.061,0.101,0.042,-0.006,-0.08,0.792,1.802
-0.037,0.079,0.116,-0.021,-0.076,0.097,0.061,0.108,0.048,-0.003,-0.074,0.797,1.804
-0.034,0.075,0.11,-0.021,-0.072,0.093,0.067,0.109,0.048,-0.002,-0.064,0.804,1.806
-0.017,0.094,0.111,-0.039,-0.064,0.103,0.07,0.113,0.058,0.007,-0.057,0.819,1.808
-0.012,0.103,0.114,-0.046,-0.064,0.109,0.067,0.119,0.063,0.009,-0.057,0.822,1.81
-0.007,0.107,0.114,-0.051,-0.061,0.111,0.071,0.126,0.069,0.011,-0.056,0.824,1.812
-0.001,0.113,0.114,-0.057,-0.058,0.114,0.067,0.131,0.073,0.014,-0.054,0.82,1.814
-0.004,0.117,0.121,-0.056,-0.063,0.119,0.061,0.129,0.068,0.003,-0.062,0.811,1.816
-0.011,0.113,0.124,-0.051,-0.068,0.118,0.057,0.124,0.068,-0.003,-0.065,0.808,1.818
-0.014,0.107,0.121,-0.046,-0.068,0.114,0.051,0.124,0.063,-0.006,-0.064,0.807,1.82
-0.009,0.112,0.122,-0.051,-0.066,0.117,0.052,0.128,0.063,-0.008,-0.065,0.81,1.822
-0.011,0.11,0.121,-0.049,-0.066,0.115,0.049,0.129,0.068,-0.006,-0.069,0.809,1.824
-0.017,0.102,0.118,-0.043,-0.068,0.111,0.046,0.129,0.071,-0.008,-0.07,0.81,1.826
-0.014,0.107,0.121,-0.046,-0.069,0.114,0.051,0.134,0.073,-0.006,-0.069,0.811,1.828
-0.016,0.103,0.119,-0.043,-0.068,0.111,0.046,0.131,0.071,-0.011,-0.072,0.81,1.83
-0.007,0.11,0.117,-0.051,-0.061,0.113,0.049,0.129,0.07,-0.014,-0.072,0.82,1.832
0.003,0.125,0.122,-0.064,-0.059,0.124,0.052,0.131,0.073,-0.014,-0.068,0.827,1.834
-0.002,0.129,0.131,-0.063,-0.067,0.13,0.049,0.133,0.076,-0.013,-0.065,0.828,1.836
-0.006,0.122,0.128,-0.059,-0.068,0.126,0.048,0.139,0.081,-0.011,-0.063,0.837,1.838
-0.009,0.117,0.126,-0.054,-0.068,0.121,0.043,0.141,0.083,-0.024,-0.062,0.847,1.84
-0.017,0.111,0.128,-0.047,-0.072,0.12,0.032,0.135,0.08,-0.034,-0.067,0.853,1.842
0.003,0.132,0.129,-0.069,-0.063,0.131,0.038,0.139,0.086,-0.029,-0.06,0.868,1.844
0.031,0.159,0.128,-0.095,-0.049,0.143,0.041,0.151,0.098,-0.013,-0.047,0.885,1.846
0.016,0.147,0.131,-0.082,-0.058,0.139,0.035,0.154,0.101,-0.01,-0.052,0.887,1.848
-0.009,0.117,0.127,-0.054,-0.068,0.121,0.029,0.147,0.095,-0.021,-0.062,0.886,1.85
0.0,0.129,0.129,-0.065,-0.065,0.129,0.033,0.155,0.101,-0.014,-0.054,0.9,1.852
0.004,0.136,0.132,-0.069,-0.064,0.134,0.031,0.162,0.106,-0.008,-0.054,0.908,1.854
-0.003,0.14,0.142,-0.068,-0.072,0.142,0.023,0.156,0.102,-0.014,-0.057,0.91,1.856
-0.001,0.137,0.138,-0.069,-0.07,0.138,0.021,0.159,0.106,-0.011,-0.052,0.918,1.858
-0.002,0.132,0.133,-0.065,-0.067,0.133,0.022,0.162,0.109,-0.006,-0.047,0.925,1.86
0.012,0.148,0.136,-0.079,-0.062,0.142,0.024,0.168,0.113,-0.003,-0.045,0.923,1.862
0.024,0.155,0.132,-0.089,-0.054,0.143,0.021,0.174,0.116,-0.002,-0.047,0.906,1.864
0.003,0.144,0.142,-0.073,-0.069,0.143,0.011,0.171,0.119,-0.001,-0.049,0.873,1.866
-0.012,0.133,0.145,-0.061,-0.079,0.139,0.004,0.168,0.116,-0.001,-0.055,0.849,1.868
-0.004,0.146,0.149,-0.071,-0.076,0.147,0.003,0.172,0.12,0.002,-0.05,0.84,1.87
0.01,0.152,0.142,-0.081,-0.066,0.147,0.003,0.184,0.131,0.006,-0.041,0.842,1.872
0.016,0.155,0.139,-0.086,-0.061,0.146,0.003,0.189,0.136,0.012,-0.037,0.838,1.874
0.029,0.174,0.145,-0.101,-0.059,0.16,0.003,0.195,0.146,0.021,-0.031,0.844,1.8760000000000001
0.032,0.183,0.151,-0.107,-0.06,0.166,0.003,0.203,0.154,0.032,-0.023,0.855,1.8780000000000001
0.023,0.176,0.153,-0.099,-0.065,0.164,-0.003,0.204,0.154,0.034,-0.021,0.865,1.8800000000000001
0.027,0.18,0.154,-0.104,-0.063,0.167,-0.004,0.211,0.161,0.039,-0.017,0.883,1.8820000000000001
0.035,0.187,0.152,-0.11,-0.058,0.169,-0.005,0.222,0.168,0.047,-0.011,0.901,1.8840000000000001
0.044,0.194,0.15,-0.119,-0.053,0.172,-0.006,0.227,0.171,0.051,-0.007,0.92,1.8860000000000001
0.046,0.201,0.155,-0.124,-0.055,0.177,-0.009,0.232,0.176,0.06,-0.006,0.933,1.8880000000000001
0.042,0.203,0.161,-0.122,-0.06,0.182,-0.012,0.235,0.182,0.062,-0.007,0.941,1.8900000000000001
0.041,0.198,0.157,-0.119,-0.058,0.177,-0.014,0.241,0.184,0.062,-0.005,0.948,1.8920000000000001
0.036,0.191,0.155,-0.113,-0.059,0.173,-0.024,0.247,0.186,0.059,-0.004,0.95,1.8940000000000001
0.033,0.194,0.16,-0.114,-0.064,0.178,-0.031,0.247,0.192,0.06,-0.009,0.946,1.8960000000000001
0.038,0.206,0.168,-0.121,-0.064,0.187,-0.035,0.252,0.196,0.059,-0.007,0.95,1.8980000000000001
0.057,0.222,0.166,-0.139,-0.055,0.194,-0.034,0.262,0.204,0.067,-0.001,0.966,1.9000000000000001
0.066,0.231,0.165,-0.149,-0.049,0.198,-0.042,0.27,0.214,0.068,0.001,0.976,1.9020000000000001
0.064,0.231,0.167,-0.147,-0.051,0.2,-0.05,0.267,0.215,0.064,0.001,0.979,1.9040000000000001
0.066,0.23,0.164,-0.148,-0.048,0.197,-0.055,0.269,0.209,0.062,0.003,0.98,1.9060000000000001
0.072,0.236,0.164,-0.155,-0.046,0.2,-0.058,0.275,0.217,0.064,0.014,0.988,1.9080000000000001
0.071,0.244,0.172,-0.157,-0.051,0.208,-0.064,0.278,0.224,0.068,0.016,0.992,1.9100000000000001
0.071,0.24,0.169,-0.156,-0.049,0.204,-0.069,0.277,0.224,0.067,0.019,0.996,1.9120000000000001
0.08,0.249,0.169,-0.165,-0.045,0.209,-0.072,0.28,0.23,0.067,0.026,1.004,1.9140000000000001
0.084,0.261,0.178,-0.173,-0.047,0.22,-0.078,0.283,0.232,0.062,0.028,0.998,1.9160000000000001
0.097,0.276,0.178,-0.187,-0.04,0.227,-0.082,0.288,0.234,0.062,0.034,0.983,1.9180000000000001
0.105,0.286,0.181,-0.195,-0.038,0.234,-0.088,0.288,0.237,0.06,0.038,0.963,1.92
0.104,0.289,0.185,-0.198,-0.041,0.238,-0.097,0.282,0.235,0.054,0.034,0.948,1.922
0.111,0.293,0.182,-0.202,-0.035,0.237,-0.108,0.277,0.227,0.049,0.036,0.943,1.924
0.117,0.294,0.177,-0.205,-0.031,0.235,-0.115,0.279,0.224,0.047,0.045,0.944,1.926
0.115,0.293,0.178,-0.204,-0.032,0.236,-0.121,0.278,0.224,0.039,0.046,0.911,1.928
0.113,0.289,0.177,-0.201,-0.032,0.233,-0.128,0.273,0.22,0.026,0.049,0.788,1.93
0.111,0.288,0.177,-0.199,-0.034,0.232,-0.133,0.27,0.219,0.019,0.053,0.655,1.932
0.117,0.292,0.175,-0.205,-0.029,0.233,-0.138,0.26,0.215,0.015,0.054,0.561,1.934
0.123,0.3,0.177,-0.211,-0.027,0.239,-0.138,0.261,0.214,0.014,0.059,0.497,1.936
0.123,0.282,0.159,-0.203,-0.017,0.22,-0.137,0.262,0.215,0.015,0.067,0.449,1.938
0.152,0.273,0.121,-0.212,0.015,0.196,-0.135,0.269,0.223,0.024,0.084,0.424,1.94
0.153,0.243,0.091,-0.198,0.031,0.166,-0.136,0.273,0.224,0.027,0.091,0.404,1.942
0.144,0.212,0.067,-0.178,0.039,0.139,-0.132,0.272,0.221,0.029,0.095,0.386,1.944
0.137,0.185,0.048,-0.162,0.045,0.116,-0.13,0.272,0.223,0.032,0.101,0.373,1.946
0.132,0.167,0.036,-0.149,0.047,0.101,-0.127,0.265,0.22,0.03,0.104,0.361,1.948
0.137,0.16,0.023,-0.149,0.058,0.091,-0.122,0.262,0.218,0.027,0.108,0.355,1.95
0.137,0.142,0.005,-0.14,0.066,0.073,-0.124,0.257,0.211,0.023,0.107,0.346,1.952
0.152,0.143,-0.009,-0.147,0.081,0.066,-0.119,0.25,0.209,0.024,0.117,0.34,1.954
0.165,0.155,-0.01,-0.16,0.088,0.073,-0.121,0.249,0.202,0.019,0.117,0.331,1.956
0.15,0.136,-0.014,-0.142,0.083,0.062,-0.127,0.239,0.192,0.014,0.112,0.321,1.958
0.147,0.124,-0.023,-0.136,0.085,0.05,-0.13,0.224,0.179,0.01,0.112,0.316,1.96
0.154,0.126,-0.028,-0.139,0.091,0.049,-0.133,0.211,0.171,0.016,0.112,0.31,1.962
0.15,0.119,-0.031,-0.134,0.091,0.044,-0.132,0.202,0.161,0.022,0.112,0.307,1.964
0.144,0.108,-0.036,-0.127,0.09,0.036,-0.13,0.196,0.153,0.026,0.11,0.308,1.966
0.143,0.107,-0.036,-0.124,0.09,0.035,-0.13,0.187,0.142,0.025,0.104,0.31,1.968
0.142,0.108,-0.034,-0.124,0.088,0.037,-0.125,0.176,0.136,0.019,0.107,0.317,1.97
0.14,0.096,-0.043,-0.119,0.091,0.027,-0.118,0.166,0.131,0.019,0.109,0.323,1.972
0.142,0.084,-0.057,-0.114,0.1,0.013,-0.118,0.159,0.121,0.019,0.104,0.324,1.974
0.137,0.082,-0.055,-0.109,0.095,0.013,-0.118,0.152,0.111,0.019,0.099,0.318,1.976
0.126,0.068,-0.059,-0.096,0.092,0.004,-0.115,0.135,0.099,0.012,0.094,0.309,1.978
0.137,0.077,-0.06,-0.106,0.098,0.008,-0.102,0.127,0.096,0.012,0.096,0.308,1.98
0.139,0.079,-0.06,-0.109,0.1,0.011,-0.098,0.12,0.092,0.012,0.089,0.306,1.982
0.112,0.052,-0.06,-0.082,0.086,-0.005,-0.1,0.103,0.075,0.003,0.079,0.302,1.984
0.104,0.038,-0.066,-0.071,0.086,-0.014,-0.092,0.094,0.068,0.001,0.079,0.304,1.986
0.092,0.022,-0.07,-0.057,0.081,-0.024,-0.09,0.087,0.063,-0.004,0.069,0.3,1.988
0.086,0.017,-0.069,-0.051,0.077,-0.027,-0.088,0.079,0.059,-0.008,0.067,0.3,1.99
0.086,0.016,-0.07,-0.051,0.078,-0.028,-0.088,0.071,0.053,-0.011,0.064,0.303,1.992
0.076,0.01,-0.066,-0.043,0.072,-0.029,-0.087,0.06,0.045,-0.016,0.055,0.294,1.994
0.071,0.004,-0.067,-0.038,0.069,-0.032,-0.08,0.048,0.04,-0.023,0.046,0.292,1.996
0.072,0.004,-0.068,-0.039,0.071,-0.032,-0.072,0.043,0.036,-0.026,0.039,0.288,1.998
0.076,0.004,-0.072,-0.04,0.075,-0.034,-0.058,0.037,0.033,-0.024,0.043,0.288,2.0
0.069,0.004,-0.065,-0.036,0.067,-0.03,-0.054,0.035,0.027,-0.029,0.039,0.281,2.0020000000000002
0.054,-0.006,-0.06,-0.023,0.057,-0.033,-0.057,0.028,0.018,-0.036,0.031,0.273,2.004
0.039,-0.024,-0.064,-0.008,0.051,-0.044,-0.057,0.02,0.008,-0.041,0.019,0.267,2.0060000000000002
0.036,-0.028,-0.064,-0.003,0.049,-0.047,-0.052,0.015,0.002,-0.046,0.014,0.265,2.008
0.034,-0.023,-0.057,-0.006,0.045,-0.04,-0.042,0.011,0.005,-0.044,0.016,0.269,2.0100000000000002
0.033,-0.029,-0.062,-0.002,0.047,-0.045,-0.034,0.009,0.007,-0.041,0.014,0.266,2.012
0.028,-0.036,-0.065,0.004,0.047,-0.051,-0.027,0.008,0.003,-0.043,0.011,0.265,2.0140000000000002
0.026,-0.036,-0.062,0.004,0.045,-0.05,-0.027,0.005,0.001,-0.044,0.009,0.26,2.016
0.023,-0.039,-0.062,0.007,0.043,-0.05,-0.022,0.003,0.0,-0.041,0.004,0.258,2.0180000000000002
0.014,-0.044,-0.058,0.015,0.035,-0.05,-0.019,0.005,0.0,-0.044,0.004,0.256,2.02
0.001,-0.054,-0.055,0.026,0.028,-0.055,-0.019,0.0,-0.002,-0.047,0.003,0.25,2.0220000000000002
-0.005,-0.057,-0.052,0.031,0.024,-0.055,-0.014,0.0,-0.003,-0.046,0.001,0.246,2.024
-0.001,-0.049,-0.048,0.025,0.022,-0.048,-0.009,0.0,-0.003,-0.044,0.001,0.245,2.0260000000000002
0.001,-0.043,-0.043,0.021,0.022,-0.043,-0.001,-0.002,-0.003,-0.041,-0.001,0.24,2.028
-0.006,-0.058,-0.052,0.031,0.023,-0.054,0.003,-0.006,-0.003,-0.046,-0.002,0.238,2.0300000000000002
-0.012,-0.062,-0.051,0.037,0.02,-0.057,0.008,-0.005,-0.007,-0.046,-0.007,0.234,2.032
-0.016,-0.065,-0.048,0.04,0.015,-0.056,0.008,-0.006,-0.008,-0.049,-0.011,0.219,2.0340000000000003
-0.016,-0.061,-0.045,0.039,0.014,-0.052,0.009,-0.008,-0.013,-0.053,-0.019,0.194,2.036
-0.019,-0.062,-0.043,0.04,0.012,-0.053,0.006,-0.008,-0.016,-0.057,-0.022,0.094,2.0380000000000003
-0.019,-0.062,-0.043,0.04,0.012,-0.053,0.003,-0.008,-0.015,-0.059,-0.023,-0.252,2.04
-0.024,-0.062,-0.037,0.043,0.007,-0.05,0.003,-0.008,-0.016,-0.057,-0.026,-0.646,2.0420000000000003
-0.028,-0.066,-0.038,0.047,0.005,-0.053,0.007,-0.016,-0.023,-0.066,-0.031,-0.894,2.044
-0.012,-0.052,-0.04,0.033,0.014,-0.046,0.018,-0.01,-0.02,-0.065,-0.032,-1.013,2.0460000000000003
-0.024,-0.058,-0.035,0.041,0.006,-0.047,0.013,-0.005,-0.02,-0.065,-0.037,-1.064,2.048
-0.042,-0.075,-0.033,0.058,-0.006,-0.054,0.01,-0.01,-0.031,-0.074,-0.052,-1.094,2.05
-0.041,-0.079,-0.037,0.06,-0.002,-0.058,0.014,-0.015,-0.032,-0.082,-0.057,-1.123,2.052
-0.037,-0.077,-0.041,0.058,0.002,-0.059,0.016,-0.013,-0.03,-0.081,-0.057,-1.172,2.054
-0.041,-0.078,-0.037,0.06,-0.003,-0.058,0.018,-0.012,-0.032,-0.084,-0.061,-1.211,2.056
-0.045,-0.08,-0.035,0.063,-0.005,-0.057,0.017,-0.013,-0.033,-0.087,-0.063,-1.242,2.058
-0.059,-0.09,-0.031,0.074,-0.014,-0.061,0.018,-0.013,-0.037,-0.088,-0.064,-1.269,2.06
-0.055,-0.08,-0.025,0.068,-0.016,-0.053,0.022,-0.012,-0.038,-0.09,-0.063,-1.331,2.062
-0.046,-0.073,-0.026,0.059,-0.01,-0.05,0.023,-0.013,-0.038,-0.092,-0.07,-1.543,2.064
-0.045,-0.074,-0.029,0.058,-0.008,-0.051,0.024,-0.01,-0.038,-0.091,-0.073,-1.779,2.066
-0.049,-0.083,-0.034,0.066,-0.008,-0.059,0.025,-0.008,-0.038,-0.094,-0.077,-1.937,2.068
-0.052,-0.087,-0.035,0.07,-0.008,-0.061,0.034,-0.006,-0.038,-0.097,-0.077,-2.036,2.07
-0.057,-0.09,-0.032,0.073,-0.013,-0.061,0.034,-0.007,-0.038,-0.099,-0.08,-2.109,2.072
-0.059,-0.094,-0.035,0.077,-0.012,-0.065,0.033,-0.006,-0.038,-0.102,-0.083,-2.167,2.074
-0.055,-0.092,-0.037,0.073,-0.009,-0.065,0.039,0.0,-0.035,-0.101,-0.082,-2.204,2.076
-0.054,-0.095,-0.04,0.074,-0.007,-0.068,0.039,0.0,-0.033,-0.102,-0.084,-2.23,2.078
-0.055,-0.095,-0.04,0.075,-0.007,-0.068,0.044,0.005,-0.031,-0.099,-0.085,-2.236,2.08
-0.055,-0.091,-0.037,0.072,-0.008,-0.065,0.046,0.01,-0.027,-0.096,-0.085,-2.237,2.082
-0.055,-0.092,-0.038,0.073,-0.008,-0.065,0.044,0.01,-0.028,-0.097,-0.087,-2.24,2.084
-0.055,-0.099,-0.045,0.078,-0.006,-0.073,0.041,0.012,-0.027,-0.097,-0.089,-2.242,2.086
-0.054,-0.107,-0.052,0.08,-0.001,-0.08,0.041,0.017,-0.023,-0.095,-0.09,-2.254,2.088
-0.057,-0.11,-0.053,0.083,-0.002,-0.082,0.047,0.018,-0.02,-0.089,-0.09,-2.271,2.09
-0.064,-0.123,-0.059,0.093,-0.002,-0.091,0.051,0.02,-0.02,-0.087,-0.09,-2.291,2.092
-0.067,-0.127,-0.06,0.098,-0.003,-0.093,0.054,0.027,-0.015,-0.087,-0.09,-2.313,2.094
-0.061,-0.12,-0.058,0.09,-0.002,-0.089,0.053,0.03,-0.013,-0.087,-0.09,-2.333,2.096
-0.052,-0.107,-0.056,0.08,0.002,-0.081,0.057,0.028,-0.015,-0.086,-0.088,-2.348,2.098
-0.032,-0.094,-0.061,0.062,0.014,-0.077,0.061,0.038,-0.01,-0.079,-0.085,-2.352,2.1
-0.041,-0.104,-0.063,0.072,0.011,-0.083,0.056,0.038,-0.006,-0.08,-0.09,-2.355,2.102
-0.054,-0.121,-0.067,0.088,0.006,-0.095,0.056,0.035,-0.005,-0.082,-0.09,-2.356,2.104
-0.054,-0.128,-0.073,0.091,0.01,-0.101,0.051,0.035,-0.005,-0.082,-0.09,-2.355,2.106
-0.047,-0.121,-0.074,0.085,0.014,-0.097,0.051,0.037,-0.003,-0.081,-0.092,-2.358,2.108
-0.042,-0.113,-0.071,0.078,0.015,-0.091,0.054,0.045,-0.002,-0.077,-0.092,-2.369,2.11
-0.053,-0.13,-0.077,0.091,0.012,-0.103,0.054,0.048,-0.003,-0.079,-0.092,-2.388,2.112
-0.051,-0.13,-0.079,0.09,0.014,-0.105,0.059,0.05,0.001,-0.077,-0.088,-2.404,2.114
-0.051,-0.126,-0.075,0.089,0.013,-0.101,0.059,0.056,0.007,-0.076,-0.088,-2.416,2.116
-0.052,-0.132,-0.08,0.092,0.014,-0.105,0.06,0.06,0.008,-0.077,-0.085,-2.418,2.118
-0.051,-0.134,-0.083,0.092,0.015,-0.108,0.061,0.06,0.01,-0.077,-0.082,-2.414,2.12
-0.047,-0.125,-0.078,0.087,0.015,-0.101,0.062,0.058,0.007,-0.076,-0.082,-2.408,2.122
-0.047,-0.121,-0.074,0.084,0.014,-0.098,0.064,0.063,0.008,-0.077,-0.082,-2.399,2.124
-0.04,-0.125,-0.086,0.083,0.023,-0.106,0.063,0.064,0.01,-0.076,-0.083,-2.401,2.126
-0.036,-0.123,-0.087,0.08,0.025,-0.105,0.061,0.063,0.01,-0.077,-0.079,-2.406,2.128
-0.03,-0.108,-0.078,0.069,0.024,-0.093,0.063,0.07,0.017,-0.071,-0.07,-2.404,2.13
-0.027,-0.107,-0.08,0.067,0.027,-0.093,0.062,0.073,0.023,-0.066,-0.066,-2.411,2.132
-0.03,-0.11,-0.079,0.07,0.024,-0.095,0.058,0.075,0.027,-0.064,-0.064,-2.421,2.134
-0.036,-0.12,-0.084,0.077,0.023,-0.101,0.049,0.073,0.023,-0.068,-0.065,-2.432,2.136
-0.042,-0.127,-0.085,0.086,0.022,-0.106,0.044,0.072,0.025,-0.07,-0.064,-2.438,2.138
-0.037,-0.122,-0.085,0.08,0.025,-0.103,0.041,0.078,0.028,-0.057,-0.062,-2.429,2.14
-0.031,-0.114,-0.084,0.072,0.027,-0.099,0.044,0.078,0.027,-0.047,-0.062,-2.415,2.142
-0.03,-0.11,-0.08,0.07,0.025,-0.096,0.046,0.073,0.027,-0.042,-0.058,-2.394,2.144
-0.029,-0.111,-0.083,0.07,0.027,-0.097,0.048,0.071,0.024,-0.041,-0.055,-2.391,2.146
-0.025,-0.112,-0.087,0.068,0.032,-0.099,0.054,0.073,0.028,-0.037,-0.05,-2.392,2.148
-0.019,-0.104,-0.085,0.062,0.033,-0.094,0.054,0.075,0.036,-0.028,-0.044,-2.396,2.15
-0.029,-0.115,-0.085,0.072,0.028,-0.1,0.056,0.08,0.038,-0.023,-0.042,-2.401,2.152
-0.032,-0.117,-0.085,0.075,0.027,-0.101,0.061,0.081,0.038,-0.018,-0.039,-2.405,2.154
-0.024,-0.111,-0.087,0.068,0.032,-0.099,0.058,0.083,0.038,-0.011,-0.032,-2.404,2.156
-0.024,-0.117,-0.093,0.071,0.034,-0.106,0.052,0.077,0.033,-0.011,-0.036,-2.398,2.158
-0.014,-0.108,-0.094,0.06,0.04,-0.101,0.054,0.078,0.037,-0.004,-0.032,-2.374,2.16
-0.014,-0.104,-0.091,0.059,0.038,-0.098,0.047,0.081,0.045,-0.001,-0.027,-2.353,2.162
-0.012,-0.102,-0.09,0.058,0.039,-0.096,0.041,0.076,0.045,-0.001,-0.025,-2.331,2.164
-0.014,-0.104,-0.09,0.06,0.038,-0.097,0.037,0.076,0.045,-0.001,-0.019,-2.305,2.166
-0.017,-0.107,-0.09,0.062,0.037,-0.098,0.034,0.075,0.04,0.0,-0.02,-2.28,2.168
-0.009,-0.095,-0.086,0.052,0.038,-0.091,0.036,0.076,0.038,0.005,-0.014,-2.25,2.17
-0.008,-0.095,-0.087,0.051,0.039,-0.09,0.036,0.073,0.04,0.009,-0.009,-2.222,2.172
-0.026,-0.115,-0.089,0.07,0.03,-0.101,0.028,0.068,0.035,0.004,-0.014,-2.202,2.174
-0.027,-0.117,-0.09,0.072,0.032,-0.103,0.028,0.063,0.032,0.001,-0.012,-2.167,2.176
-0.024,-0.11,-0.086,0.067,0.03,-0.098,0.029,0.063,0.035,0.004,-0.009,-2.121,2.178
-0.02,-0.105,-0.085,0.063,0.032,-0.096,0.023,0.058,0.033,0.007,-0.009,-2.078,2.18
-0.017,-0.101,-0.084,0.059,0.034,-0.092,0.023,0.06,0.032,0.009,-0.008,-2.021,2.182
-0.019,-0.099,-0.08,0.06,0.03,-0.09,0.026,0.058,0.032,0.012,-0.007,-1.942,2.184
-0.016,-0.107,-0.091,0.062,0.038,-0.098,0.026,0.053,0.027,0.009,-0.007,-1.855,2.186
-0.015,-0.106,-0.092,0.06,0.038,-0.099,0.026,0.05,0.025,0.011,-0.007,-1.661,2.188
-0.009,-0.097,-0.087,0.052,0.04,-0.092,0.031,0.056,0.031,0.014,-0.005,-1.361,2.19
-0.009,-0.097,-0.088,0.053,0.04,-0.093,0.032,0.056,0.03,0.019,-0.004,-1.107,2.192
-0.008,-0.095,-0.087,0.052,0.039,-0.091,0.03,0.052,0.027,0.019,-0.002,-0.922,2.194
-0.007,-0.094,-0.087,0.05,0.04,-0.09,0.029,0.054,0.028,0.02,-0.001,-0.788,2.196
-0.006,-0.097,-0.091,0.052,0.043,-0.094,0.031,0.055,0.031,0.024,-0.002,-0.68,2.198
-0.002,-0.091,-0.09,0.047,0.044,-0.09,0.031,0.055,0.028,0.023,-0.001,-0.592,2.2
-0.002,-0.082,-0.079,0.042,0.038,-0.08,0.031,0.05,0.027,0.024,-0.002,-0.516,2.202
-0.011,-0.089,-0.078,0.05,0.033,-0.083,0.026,0.045,0.025,0.019,-0.001,-0.448,2.204
-0.015,-0.096,-0.081,0.056,0.033,-0.089,0.029,0.04,0.025,0.014,-0.002,-0.389,2.206
-0.006,-0.088,-0.081,0.047,0.037,-0.084,0.036,0.042,0.025,0.016,-0.001,-0.346,2.208
-0.007,-0.085,-0.078,0.045,0.036,-0.082,0.034,0.042,0.023,0.017,-0.002,-0.321,2.21
-0.009,-0.094,-0.085,0.052,0.038,-0.09,0.029,0.035,0.017,0.012,-0.004,-0.303,2.212
-0.007,-0.092,-0.085,0.05,0.039,-0.087,0.029,0.037,0.014,0.014,-0.001,-0.285,2.214
-0.015,-0.097,-0.082,0.055,0.034,-0.09,0.028,0.033,0.012,0.014,-0.002,-0.267,2.216
-0.016,-0.094,-0.078,0.054,0.031,-0.085,0.031,0.03,0.015,0.017,0.001,-0.238,2.218
0.003,-0.073,-0.076,0.035,0.039,-0.074,0.04,0.036,0.018,0.024,0.004,-0.201,2.22
-0.001,-0.073,-0.073,0.037,0.035,-0.073,0.035,0.031,0.012,0.017,-0.002,-0.178,2.222
-0.015,-0.085,-0.07,0.05,0.027,-0.078,0.034,0.028,0.01,0.013,-0.004,-0.151,2.224
-0.022,-0.1,-0.078,0.06,0.028,-0.089,0.031,0.025,0.006,0.01,-0.007,-0.127,2.226
-0.015,-0.099,-0.084,0.057,0.034,-0.092,0.029,0.017,0.0,0.004,-0.009,-0.11,2.228
-0.009,-0.086,-0.077,0.048,0.034,-0.082,0.041,0.02,0.003,0.007,-0.004,-0.097,2.23
-0.012,-0.087,-0.076,0.05,0.033,-0.081,0.046,0.022,0.005,0.013,-0.004,-0.09,2.232
-0.009,-0.087,-0.078,0.047,0.035,-0.083,0.043,0.018,0.002,0.011,-0.004,-0.083,2.234
-0.01,-0.087,-0.077,0.048,0.034,-0.082,0.039,0.018,0.003,0.007,-0.004,-0.068,2.236
-0.016,-0.087,-0.071,0.052,0.028,-0.079,0.033,0.021,0.002,0.008,-0.004,-0.046,2.238
-0.02,-0.09,-0.07,0.056,0.024,-0.08,0.03,0.017,0.002,0.009,-0.006,-0.025,2.24
-0.017,-0.089,-0.072,0.052,0.027,-0.08,0.033,0.01,-0.003,0.004,-0.01,-0.004,2.242
-0.012,-0.087,-0.075,0.05,0.032,-0.08,0.036,0.01,-0.005,0.004,-0.012,0.021,2.244
-0.012,-0.087,-0.075,0.05,0.032,-0.08,0.038,0.01,-0.002,0.004,-0.012,0.044,2.246
-0.013,-0.084,-0.07,0.049,0.028,-0.078,0.036,0.008,-0.003,0.005,-0.012,0.054,2.248
-0.007,-0.078,-0.072,0.042,0.032,-0.074,0.037,0.01,-0.003,0.007,-0.009,0.059,2.25
-0.007,-0.082,-0.075,0.045,0.034,-0.078,0.033,0.011,-0.002,0.004,-0.006,0.061,2.2520000000000002
-0.011,-0.083,-0.072,0.048,0.03,-0.078,0.029,0.005,-0.007,0.001,-0.009,0.057,2.254
-0.017,-0.076,-0.059,0.047,0.021,-0.068,0.026,0.002,-0.013,0.002,-0.012,0.061,2.2560000000000002
-0.019,-0.074,-0.055,0.047,0.017,-0.065,0.029,0.003,-0.012,0.002,-0.011,0.076,2.258
-0.017,-0.077,-0.061,0.047,0.022,-0.068,0.034,0.002,-0.01,0.004,-0.009,0.094,2.2600000000000002
-0.024,-0.084,-0.061,0.054,0.018,-0.073,0.03,0.0,-0.011,0.001,-0.014,0.111,2.262
-0.023,-0.084,-0.061,0.053,0.019,-0.073,0.026,0.0,-0.015,0.003,-0.016,0.136,2.2640000000000002
-0.029,-0.087,-0.058,0.058,0.015,-0.073,0.028,0.0,-0.016,0.004,-0.014,0.149,2.266
-0.032,-0.089,-0.058,0.06,0.012,-0.073,0.026,-0.008,-0.02,0.001,-0.017,0.152,2.2680000000000002
-0.029,-0.092,-0.062,0.061,0.017,-0.078,0.024,-0.012,-0.023,0.002,-0.019,0.152,2.27
-0.025,-0.095,-0.07,0.06,0.021,-0.083,0.027,-0.01,-0.02,0.007,-0.019,0.149,2.2720000000000002
-0.019,-0.092,-0.073,0.055,0.027,-0.082,0.031,-0.008,-0.015,0.011,-0.017,0.146,2.274
-0.014,-0.082,-0.067,0.048,0.027,-0.075,0.031,-0.008,-0.016,0.007,-0.012,0.149,2.2760000000000002
-0.017,-0.082,-0.065,0.05,0.024,-0.073,0.034,-0.011,-0.018,0.006,-0.013,0.157,2.278
-0.02,-0.084,-0.064,0.053,0.022,-0.074,0.04,-0.01,-0.018,0.007,-0.016,0.169,2.2800000000000002
-0.024,-0.081,-0.057,0.053,0.017,-0.069,0.036,-0.011,-0.018,0.006,-0.016,0.182,2.282
-0.027,-0.084,-0.057,0.056,0.015,-0.07,0.034,-0.013,-0.02,0.005,-0.02,0.197,2.2840000000000003
-0.026,-0.087,-0.061,0.057,0.018,-0.073,0.038,-0.013,-0.021,0.007,-0.019,0.212,2.286
-0.014,-0.07,-0.055,0.043,0.02,-0.062,0.038,-0.013,-0.02,0.007,-0.017,0.218,2.2880000000000003
-0.016,-0.063,-0.047,0.039,0.015,-0.055,0.034,-0.013,-0.022,0.006,-0.02,0.217,2.29
-0.022,-0.073,-0.05,0.048,0.014,-0.061,0.03,-0.016,-0.023,0.004,-0.019,0.213,2.2920000000000003
-0.024,-0.081,-0.058,0.052,0.017,-0.069,0.029,-0.013,-0.023,0.009,-0.02,0.212,2.294
-0.025,-0.082,-0.057,0.053,0.016,-0.07,0.034,-0.012,-0.022,0.009,-0.017,0.213,2.2960000000000003
-0.014,-0.076,-0.062,0.044,0.025,-0.069,0.037,-0.008,-0.018,0.015,-0.013,0.218,2.298
-0.019,-0.079,-0.06,0.05,0.02,-0.07,0.035,-0.01,-0.018,0.014,-0.017,0.228,2.3000000000000003
-0.026,-0.079,-0.053,0.053,0.013,-0.066,0.034,-0.013,-0.022,0.01,-0.019,0.243,2.302
-0.024,-0.081,-0.058,0.052,0.017,-0.07,0.032,-0.018,-0.023,0.007,-0.021,0.256,2.3040000000000003
-0.017,-0.079,-0.062,0.048,0.023,-0.07,0.031,-0.02,-0.025,0.002,-0.019,0.27,2.306
-0.011,-0.066,-0.055,0.038,0.023,-0.06,0.029,-0.017,-0.025,0.006,-0.017,0.28,2.308
-0.024,-0.076,-0.053,0.05,0.015,-0.065,0.024,-0.018,-0.026,0.005,-0.022,0.273,2.31
-0.03,-0.085,-0.056,0.058,0.012,-0.071,0.023,-0.02,-0.03,0.003,-0.026,0.264,2.312
-0.024,-0.083,-0.059,0.053,0.017,-0.071,0.025,-0.02,-0.03,0.002,-0.025,0.262,2.314
-0.019,-0.074,-0.055,0.047,0.017,-0.064,0.028,-0.025,-0.03,0.004,-0.024,0.259,2.316
-0.014,-0.069,-0.055,0.041,0.02,-0.062,0.029,-0.023,-0.03,0.007,-0.02,0.27,2.318
-0.017,-0.073,-0.056,0.045,0.02,-0.064,0.029,-0.021,-0.031,0.009,-0.021,0.28,2.32
-0.022,-0.076,-0.054,0.049,0.016,-0.065,0.029,-0.023,-0.033,0.006,-0.022,0.293,2.322
-0.029,-0.079,-0.05,0.054,0.011,-0.065,0.027,-0.024,-0.034,0.005,-0.022,0.308,2.324
-0.032,-0.084,-0.052,0.058,0.01,-0.068,0.026,-0.026,-0.038,0.004,-0.027,0.317,2.326
-0.017,-0.067,-0.049,0.042,0.016,-0.057,0.029,-0.023,-0.041,0.007,-0.024,0.32,2.328
-0.011,-0.056,-0.045,0.034,0.018,-0.05,0.031,-0.023,-0.038,0.009,-0.021,0.311,2.33
-0.017,-0.065,-0.048,0.04,0.015,-0.056,0.026,-0.023,-0.035,0.004,-0.022,0.3,2.332
-0.016,-0.066,-0.05,0.041,0.018,-0.058,0.029,-0.023,-0.036,0.004,-0.022,0.295,2.334
-0.004,-0.056,-0.053,0.029,0.025,-0.055,0.034,-0.021,-0.033,0.009,-0.021,0.3,2.336
-0.002,-0.055,-0.053,0.028,0.025,-0.053,0.034,-0.018,-0.033,0.014,-0.019,0.308,2.338
0.001,-0.053,-0.054,0.027,0.028,-0.054,0.036,-0.015,-0.033,0.014,-0.019,0.321,2.34
-0.005,-0.052,-0.047,0.029,0.021,-0.05,0.029,-0.022,-0.033,0.014,-0.017,0.328,2.342
-0.017,-0.064,-0.047,0.04,0.015,-0.055,0.024,-0.025,-0.038,0.009,-0.02,0.343,2.344
-0.019,-0.072,-0.053,0.045,0.017,-0.063,0.023,-0.02,-0.036,0.006,-0.019,0.354,2.346
-0.027,-0.075,-0.048,0.05,0.01,-0.061,0.024,-0.025,-0.037,0.004,-0.021,0.351,2.348
-0.027,-0.064,-0.037,0.045,0.005,-0.05,0.028,-0.028,-0.038,0.005,-0.022,0.346,2.35
-0.027,-0.062,-0.035,0.045,0.004,-0.048,0.028,-0.023,-0.031,0.007,-0.022,0.341,2.352
-0.032,-0.067,-0.035,0.05,0.002,-0.051,0.031,-0.02,-0.028,0.007,-0.024,0.336,2.354
-0.029,-0.064,-0.035,0.047,0.003,-0.049,0.031,-0.018,-0.036,0.006,-0.024,0.331,2.356
-0.026,-0.067,-0.04,0.047,0.007,-0.054,0.028,-0.022,-0.042,0.002,-0.024,0.333,2.358
-0.021,-0.067,-0.046,0.045,0.013,-0.056,0.029,-0.023,-0.038,0.002,-0.024,0.346,2.36
-0.017,-0.059,-0.042,0.037,0.012,-0.05,0.028,-0.025,-0.04,0.006,-0.022,0.353,2.362
-0.021,-0.056,-0.035,0.039,0.007,-0.045,0.024,-0.026,-0.041,0.002,-0.022,0.354,2.364
-0.022,-0.059,-0.037,0.04,0.007,-0.047,0.029,-0.023,-0.038,0.004,-0.016,0.358,2.366
-0.019,-0.056,-0.038,0.037,0.009,-0.048,0.031,-0.025,-0.038,0.007,-0.014,0.357,2.368
-0.015,-0.056,-0.042,0.035,0.014,-0.05,0.028,-0.027,-0.038,0.007,-0.018,0.349,2.37
-0.022,-0.065,-0.043,0.043,0.01,-0.053,0.029,-0.025,-0.038,0.006,-0.019,0.338,2.372
-0.019,-0.067,-0.047,0.043,0.015,-0.057,0.028,-0.025,-0.037,0.009,-0.02,0.338,2.374
-0.022,-0.067,-0.045,0.044,0.012,-0.056,0.023,-0.028,-0.043,0.007,-0.024,0.336,2.376
-0.024,-0.067,-0.042,0.045,0.01,-0.055,0.022,-0.033,-0.048,0.004,-0.027,0.34,2.378
-0.019,-0.066,-0.047,0.043,0.014,-0.057,0.028,-0.028,-0.043,0.004,-0.023,0.351,2.38
-0.019,-0.061,-0.042,0.04,0.011,-0.052,0.029,-0.029,-0.04,0.007,-0.022,0.361,2.382
-0.019,-0.054,-0.035,0.037,0.008,-0.045,0.027,-0.03,-0.043,0.007,-0.021,0.371,2.384
-0.02,-0.055,-0.034,0.038,0.006,-0.045,0.026,-0.027,-0.041,0.004,-0.022,0.379,2.386
-0.02,-0.05,-0.03,0.036,0.005,-0.04,0.027,-0.028,-0.037,0.005,-0.019,0.383,2.388
-0.012,-0.043,-0.031,0.028,0.01,-0.037,0.028,-0.025,-0.034,0.009,-0.014,0.376,2.39
-0.027,-0.064,-0.037,0.045,0.005,-0.05,0.023,-0.028,-0.04,0.007,-0.024,0.368,2.392
-0.035,-0.072,-0.037,0.053,0.002,-0.056,0.023,-0.031,-0.044,0.004,-0.022,0.371,2.394
-0.024,-0.061,-0.037,0.042,0.007,-0.049,0.029,-0.028,-0.042,0.009,-0.019,0.376,2.396
-0.023,-0.057,-0.034,0.041,0.006,-0.045,0.031,-0.022,-0.038,0.009,-0.019,0.387,2.398
-0.026,-0.059,-0.032,0.042,0.003,-0.045,0.031,-0.021,-0.035,0.009,-0.019,0.393,2.4
-0.027,-0.057,-0.03,0.042,0.002,-0.043,0.029,-0.025,-0.038,0.004,-0.019,0.396,2.402
-0.036,-0.056,-0.02,0.047,-0.008,-0.037,0.026,-0.027,-0.043,0.001,-0.019,0.406,2.404
-0.035,-0.057,-0.022,0.046,-0.006,-0.04,0.026,-0.028,-0.043,0.002,-0.019,0.414,2.406
-0.031,-0.051,-0.02,0.041,-0.005,-0.035,0.028,-0.028,-0.043,-0.001,-0.02,0.416,2.408
-0.026,-0.048,-0.022,0.038,-0.002,-0.034,0.027,-0.027,-0.043,-0.001,-0.024,0.412,2.41
-0.028,-0.054,-0.027,0.04,0.0,-0.04,0.025,-0.025,-0.043,-0.001,-0.027,0.409,2.412
-0.03,-0.059,-0.03,0.045,0.0,-0.045,0.028,-0.025,-0.043,0.002,-0.026,0.406,2.414
-0.027,-0.054,-0.026,0.04,-0.001,-0.04,0.028,-0.028,-0.043,0.004,-0.024,0.408,2.416
-0.027,-0.051,-0.024,0.039,-0.001,-0.037,0.027,-0.028,-0.041,0.002,-0.024,0.414,2.418
-0.03,-0.057,-0.027,0.043,-0.001,-0.043,0.029,-0.025,-0.04,0.004,-0.022,0.424,2.42
-0.029,-0.051,-0.023,0.04,-0.003,-0.038,0.029,-0.025,-0.04,0.001,-0.022,0.429,2.422
-0.019,-0.047,-0.027,0.033,0.004,-0.037,0.026,-0.027,-0.043,-0.001,-0.022,0.434,2.424
-0.017,-0.047,-0.03,0.033,0.008,-0.038,0.026,-0.028,-0.041,0.0,-0.022,0.444,2.426
-0.018,-0.044,-0.026,0.031,0.003,-0.035,0.032,-0.025,-0.037,0.002,-0.022,0.451,2.428
-0.029,-0.048,-0.018,0.038,-0.005,-0.033,0.026,-0.028,-0.04,0.002,-0.022,0.449,2.43
-0.026,-0.048,-0.022,0.037,-0.002,-0.035,0.029,-0.03,-0.038,0.001,-0.02,0.452,2.432
-0.009,-0.034,-0.025,0.022,0.008,-0.03,0.031,-0.026,-0.033,0.004,-0.019,0.444,2.434
-0.019,-0.041,-0.022,0.03,0.002,-0.031,0.031,-0.03,-0.036,0.002,-0.019,0.439,2.436
-0.028,-0.048,-0.02,0.038,-0.004,-0.034,0.026,-0.035,-0.041,0.001,-0.021,0.445,2.438
-0.024,-0.043,-0.019,0.034,-0.003,-0.031,0.029,-0.035,-0.04,0.002,-0.02,0.464,2.44
-0.007,-0.026,-0.019,0.017,0.007,-0.023,0.036,-0.026,-0.035,0.006,-0.014,0.486,2.442
-0.019,-0.043,-0.025,0.032,0.003,-0.035,0.031,-0.03,-0.04,-0.001,-0.022,0.487,2.444
-0.035,-0.059,-0.025,0.048,-0.006,-0.043,0.034,-0.033,-0.046,-0.004,-0.024,0.48,2.446
-0.031,-0.055,-0.024,0.044,-0.004,-0.04,0.034,-0.03,-0.045,-0.004,-0.022,0.463,2.448
-0.032,-0.047,-0.015,0.04,-0.008,-0.031,0.031,-0.03,-0.046,-0.006,-0.025,0.445,2.45
-0.032,-0.051,-0.019,0.042,-0.007,-0.035,0.036,-0.027,-0.043,-0.002,-0.022,0.439,2.452
-0.014,-0.044,-0.03,0.029,0.008,-0.038,0.04,-0.028,-0.038,0.002,-0.015,0.437,2.454
-0.014,-0.044,-0.03,0.029,0.008,-0.038,0.036,-0.028,-0.036,0.002,-0.012,0.432,2.456
-0.032,-0.057,-0.025,0.045,-0.003,-0.041,0.028,-0.033,-0.045,-0.001,-0.022,0.431,2.458
-0.034,-0.056,-0.022,0.045,-0.006,-0.04,0.026,-0.032,-0.046,-0.003,-0.025,0.441,2.46
-0.029,-0.047,-0.017,0.038,-0.005,-0.032,0.026,-0.031,-0.045,-0.004,-0.024,0.448,2.462
-0.026,-0.037,-0.01,0.032,-0.008,-0.023,0.028,-0.033,-0.045,-0.004,-0.025,0.46,2.464
-0.027,-0.032,-0.004,0.029,-0.012,-0.017,0.036,-0.027,-0.038,-0.001,-0.022,0.466,2.466
-0.023,-0.024,0.0,0.024,-0.012,-0.012,0.048,-0.021,-0.033,0.004,-0.016,0.474,2.468
-0.018,-0.016,0.002,0.018,-0.01,-0.007,0.067,-0.012,-0.022,0.015,-0.009,0.482,2.47
-0.019,-0.011,0.007,0.015,-0.013,-0.002,0.084,-0.007,-0.017,0.019,-0.012,0.482,2.472
-0.016,-0.004,0.012,0.01,-0.014,0.004,0.097,-0.006,-0.016,0.022,-0.007,0.482,2.474
-0.014,0.007,0.021,0.004,-0.018,0.013,0.109,0.003,-0.01,0.026,-0.001,0.486,2.476
-0.015,0.012,0.026,0.002,-0.021,0.018,0.114,0.011,-0.005,0.029,0.004,0.492,2.478
-0.011,0.021,0.032,-0.005,-0.021,0.027,0.122,0.011,0.0,0.032,0.006,0.496,2.48
-0.006,0.035,0.041,-0.014,-0.023,0.038,0.132,0.012,0.002,0.034,0.003,0.497,2.482
-0.007,0.035,0.042,-0.013,-0.025,0.039,0.14,0.015,0.004,0.038,0.003,0.504,2.484
-0.01,0.029,0.038,-0.01,-0.024,0.032,0.145,0.021,0.005,0.04,0.006,0.515,2.486
-0.009,0.035,0.043,-0.013,-0.025,0.039,0.152,0.028,0.011,0.042,0.004,0.521,2.488
-0.017,0.039,0.056,-0.01,-0.036,0.047,0.157,0.028,0.015,0.039,0.001,0.519,2.49
-0.016,0.039,0.055,-0.011,-0.035,0.048,0.16,0.028,0.023,0.047,0.009,0.522,2.492
-0.012,0.047,0.059,-0.017,-0.036,0.053,0.157,0.034,0.03,0.052,0.017,0.523,2.494
-0.011,0.048,0.059,-0.019,-0.035,0.053,0.149,0.036,0.025,0.057,0.018,0.527,2.496
0.0,0.049,0.048,-0.025,-0.024,0.048,0.117,0.035,0.028,0.055,0.016,0.527,2.498
0.004,0.048,0.044,-0.026,-0.021,0.047,0.076,0.031,0.031,0.057,0.017,0.53,2.5
0.011,0.057,0.046,-0.034,-0.018,0.052,0.031,0.027,0.033,0.06,0.021,0.539,2.5020000000000002
0.004,0.055,0.051,-0.029,-0.023,0.053,-0.006,0.013,0.023,0.052,0.019,0.545,2.504
-0.002,0.042,0.043,-0.021,-0.023,0.043,-0.012,-0.003,0.013,0.044,0.013,0.547,2.5060000000000002
-0.001,0.039,0.04,-0.019,-0.02,0.04,-0.012,-0.028,0.002,0.034,0.008,0.55,2.508
0.0,0.047,0.046,-0.024,-0.023,0.046,-0.012,-0.043,-0.003,0.024,0.006,0.551,2.5100000000000002
-0.002,0.045,0.047,-0.021,-0.024,0.047,-0.019,-0.047,-0.007,0.024,0.008,0.546,2.512
-0.001,0.042,0.043,-0.02,-0.022,0.042,-0.025,-0.048,-0.013,0.024,0.009,0.55,2.5140000000000002
0.003,0.045,0.041,-0.024,-0.019,0.043,-0.029,-0.048,-0.012,0.03,0.011,0.552,2.516
0.003,0.044,0.041,-0.024,-0.019,0.043,-0.028,-0.048,-0.013,0.031,0.011,0.553,2.5180000000000002
0.011,0.042,0.031,-0.026,-0.01,0.036,-0.027,-0.048,-0.012,0.029,0.013,0.562,2.52
0.016,0.045,0.029,-0.032,-0.005,0.036,-0.027,-0.048,-0.015,0.029,0.014,0.569,2.5220000000000002
0.016,0.056,0.04,-0.036,-0.012,0.048,-0.025,-0.048,-0.015,0.028,0.013,0.576,2.524
0.013,0.062,0.049,-0.038,-0.018,0.055,-0.021,-0.048,-0.015,0.026,0.014,0.583,2.5260000000000002
0.013,0.059,0.046,-0.036,-0.015,0.052,-0.018,-0.053,-0.02,0.025,0.013,0.588,2.528
0.014,0.057,0.043,-0.036,-0.014,0.05,-0.012,-0.048,-0.018,0.029,0.012,0.59,2.5300000000000002
0.008,0.039,0.031,-0.023,-0.011,0.035,-0.008,-0.038,-0.008,0.036,0.018,0.588,2.532
0.005,0.022,0.017,-0.014,-0.006,0.02,-0.005,-0.033,-0.008,0.04,0.017,0.586,2.5340000000000003
0.008,0.017,0.009,-0.013,-0.001,0.013,-0.004,-0.033,-0.008,0.034,0.014,0.58,2.536
0.007,0.007,0.0,-0.006,0.003,0.004,-0.002,-0.032,-0.008,0.03,0.014,0.58,2.5380000000000003
0.001,-0.006,-0.007,0.003,0.004,-0.007,-0.004,-0.038,-0.018,0.026,0.011,0.58,2.54
0.004,-0.009,-0.013,0.002,0.008,-0.011,-0.01,-0.055,-0.038,0.012,0.003,0.586,2.5420000000000003
0.011,-0.013,-0.023,0.001,0.017,-0.018,-0.019,-0.07,-0.056,0.001,-0.006,0.586,2.544
0.004,-0.034,-0.038,0.015,0.021,-0.036,-0.024,-0.08,-0.061,-0.006,-0.012,0.58,2.5460000000000003
-0.002,-0.045,-0.043,0.023,0.02,-0.044,-0.029,-0.079,-0.058,-0.008,-0.011,0.582,2.548
0.001,-0.038,-0.04,0.019,0.02,-0.039,-0.026,-0.069,-0.051,-0.001,-0.007,0.583,2.5500000000000003
0.003,-0.036,-0.039,0.017,0.021,-0.037,-0.021,-0.058,-0.047,0.003,-0.003,0.585,2.552
-0.006,-0.045,-0.039,0.026,0.017,-0.042,-0.024,-0.055,-0.051,-0.001,-0.008,0.58,2.5540000000000003
-0.006,-0.049,-0.043,0.028,0.018,-0.045,-0.024,-0.056,-0.058,-0.001,-0.009,0.578,2.556
-0.009,-0.044,-0.035,0.027,0.013,-0.04,-0.017,-0.051,-0.056,-0.001,-0.009,0.582,2.5580000000000003
-0.014,-0.043,-0.029,0.029,0.007,-0.036,-0.006,-0.045,-0.045,0.001,-0.008,0.591,2.56
-0.021,-0.041,-0.02,0.032,0.0,-0.03,0.002,-0.038,-0.035,0.002,-0.007,0.602,2.562
-0.026,-0.042,-0.015,0.034,-0.005,-0.028,0.008,-0.033,-0.032,0.004,-0.006,0.603,2.564
-0.027,-0.047,-0.02,0.037,-0.004,-0.032,0.006,-0.033,-0.038,-0.001,-0.011,0.606,2.566
-0.024,-0.049,-0.025,0.037,0.0,-0.037,0.003,-0.04,-0.046,-0.004,-0.019,0.605,2.568
-0.023,-0.047,-0.024,0.035,0.001,-0.035,0.004,-0.048,-0.05,-0.009,-0.026,0.604,2.57
-0.034,-0.052,-0.017,0.043,-0.009,-0.035,0.005,-0.052,-0.054,-0.011,-0.03,0.603,2.572
-0.031,-0.054,-0.023,0.042,-0.004,-0.039,0.014,-0.053,-0.053,-0.009,-0.024,0.603,2.574
-0.022,-0.049,-0.027,0.035,0.003,-0.038,0.018,-0.048,-0.054,-0.008,-0.022,0.6,2.576
-0.039,-0.06,-0.021,0.05,-0.009,-0.04,0.018,-0.05,-0.055,-0.011,-0.029,0.591,2.578
-0.047,-0.065,-0.017,0.055,-0.015,-0.04,0.023,-0.048,-0.053,-0.016,-0.033,0.591,2.58
-0.038,-0.058,-0.019,0.048,-0.01,-0.038,0.029,-0.042,-0.053,-0.015,-0.029,0.595,2.582
-0.036,-0.055,-0.019,0.046,-0.008,-0.037,0.029,-0.04,-0.054,-0.013,-0.027,0.601,2.584
-0.028,-0.048,-0.019,0.038,-0.005,-0.034,0.031,-0.035,-0.05,-0.008,-0.026,0.608,2.586
-0.02,-0.042,-0.023,0.03,0.002,-0.032,0.032,-0.033,-0.045,-0.006,-0.024,0.61,2.588
-0.024,-0.046,-0.022,0.035,-0.001,-0.035,0.028,-0.032,-0.043,-0.006,-0.025,0.611,2.59
-0.027,-0.053,-0.027,0.04,0.0,-0.04,0.029,-0.03,-0.04,-0.009,-0.029,0.603,2.592
-0.037,-0.057,-0.021,0.047,-0.008,-0.038,0.036,-0.03,-0.041,-0.018,-0.027,0.603,2.594
-0.037,-0.051,-0.014,0.044,-0.011,-0.032,0.044,-0.03,-0.039,-0.022,-0.022,0.603,2.596
-0.047,-0.059,-0.012,0.052,-0.018,-0.035,0.045,-0.028,-0.037,-0.024,-0.021,0.602,2.598
-0.052,-0.062,-0.01,0.057,-0.021,-0.036,0.048,-0.023,-0.03,-0.021,-0.017,0.616,2.6
-0.049,-0.054,-0.005,0.052,-0.022,-0.03,0.049,-0.024,-0.027,-0.019,-0.012,0.623,2.602
-0.044,-0.047,-0.002,0.046,-0.021,-0.025,0.049,-0.025,-0.023,-0.017,-0.01,0.631,2.604
-0.049,-0.046,0.003,0.048,-0.026,-0.022,0.049,-0.022,-0.018,-0.011,-0.004,0.638,2.606
-0.048,-0.048,0.0,0.047,-0.024,-0.024,0.048,-0.026,-0.018,-0.011,-0.002,0.638,2.608
-0.047,-0.039,0.008,0.043,-0.028,-0.015,0.053,-0.02,-0.014,-0.01,-0.007,0.631,2.61
-0.067,-0.038,0.029,0.052,-0.048,-0.005,0.074,0.012,0.01,-0.006,-0.015,0.624,2.612
-0.082,-0.022,0.061,0.052,-0.071,0.02,0.117,0.093,0.078,0.007,-0.037,0.608,2.614
-0.089,-0.003,0.086,0.046,-0.088,0.042,0.183,0.258,0.214,0.046,-0.061,0.579,2.616
-0.078,0.024,0.102,0.027,-0.09,0.063,0.253,0.497,0.422,0.139,-0.05,0.578,2.618
-0.05,0.077,0.127,-0.013,-0.089,0.102,0.276,0.694,0.63,0.285,0.022,0.624,2.62
-0.007,0.142,0.149,-0.068,-0.078,0.145,0.258,0.797,0.782,0.44,0.131,0.7,2.622
0.043,0.212,0.169,-0.128,-0.063,0.191,0.236,0.84,0.887,0.576,0.253,0.787,2.624
0.101,0.282,0.181,-0.191,-0.04,0.231,0.211,0.858,0.976,0.718,0.384,0.874,2.626
0.168,0.364,0.196,-0.266,-0.014,0.279,0.196,0.843,1.059,0.887,0.558,0.989,2.628
0.259,0.471,0.211,-0.366,0.024,0.341,0.165,0.73,1.105,1.104,0.81,1.149,2.63
0.357,0.571,0.214,-0.464,0.071,0.393,0.082,0.497,1.076,1.331,1.12,1.349,2.632
0.472,0.7,0.228,-0.585,0.123,0.465,-0.037,0.122,0.941,1.538,1.486,1.598,2.634
0.614,0.855,0.241,-0.734,0.186,0.548,-0.21,-0.333,0.756,1.746,1.894,1.876,2.636
0.788,0.967,0.178,-0.877,0.306,0.572,-0.443,-0.756,0.598,2.02,2.344,2.171,2.638
0.954,1.031,0.077,-0.992,0.438,0.554,-0.672,-1.097,0.414,2.239,2.711,2.414,2.64
1.055,0.95,-0.105,-1.002,0.58,0.422,-0.825,-1.341,0.138,2.202,2.765,2.451,2.642
1.015,0.728,-0.287,-0.871,0.65,0.22,-0.886,-1.552,-0.22,1.861,2.462,2.268,2.644
0.875,0.534,-0.342,-0.705,0.609,0.096,-0.896,-1.753,-0.63,1.283,1.931,1.982,2.646
0.713,0.359,-0.354,-0.536,0.533,0.002,-0.871,-1.894,-1.043,0.575,1.286,1.642,2.648
0.539,0.198,-0.341,-0.368,0.44,-0.072,-0.822,-2.01,-1.454,-0.21,0.59,1.278,2.65
0.377,0.08,-0.298,-0.228,0.338,-0.109,-0.792,-2.112,-1.845,-0.978,-0.058,0.956,2.652
0.257,-0.014,-0.272,-0.121,0.265,-0.143,-0.788,-2.154,-2.101,-1.5,-0.504,0.721,2.654
0.188,-0.071,-0.259,-0.059,0.224,-0.166,-0.781,-2.086,-2.115,-1.644,-0.685,0.585,2.656
0.137,-0.138,-0.275,0.0,0.206,-0.206,-0.746,-1.899,-1.957,-1.557,-0.711,0.522,2.658
0.111,-0.2,-0.311,0.045,0.211,-0.256,-0.703,-1.681,-1.757,-1.418,-0.691,0.489,2.66
0.102,-0.206,-0.308,0.052,0.205,-0.258,-0.657,-1.47,-1.556,-1.275,-0.646,0.488,2.662
0.086,-0.183,-0.269,0.048,0.179,-0.227,-0.604,-1.285,-1.376,-1.141,-0.593,0.497,2.664
0.06,-0.144,-0.205,0.043,0.133,-0.174,-0.536,-1.116,-1.2,-1.008,-0.531,0.512,2.666
0.042,-0.128,-0.17,0.043,0.107,-0.149,-0.43,-0.9,-0.977,-0.828,-0.439,0.534,2.668
0.031,-0.127,-0.157,0.048,0.095,-0.142,-0.321,-0.675,-0.756,-0.649,-0.347,0.557,2.67
0.008,-0.13,-0.139,0.061,0.073,-0.134,-0.229,-0.513,-0.599,-0.528,-0.289,0.566,2.672
0.009,-0.119,-0.129,0.055,0.068,-0.124,-0.145,-0.387,-0.473,-0.431,-0.242,0.58,2.674
0.009,-0.099,-0.108,0.044,0.058,-0.103,-0.083,-0.272,-0.363,-0.351,-0.203,0.586,2.676
-0.017,-0.118,-0.101,0.068,0.042,-0.109,-0.042,-0.188,-0.281,-0.288,-0.173,0.588,2.678
-0.024,-0.109,-0.085,0.067,0.03,-0.097,-0.002,-0.121,-0.209,-0.227,-0.142,0.605,2.68
-0.024,-0.087,-0.063,0.055,0.019,-0.075,0.026,-0.067,-0.148,-0.177,-0.115,0.62,2.682
-0.034,-0.082,-0.048,0.058,0.007,-0.065,0.044,-0.033,-0.11,-0.15,-0.102,0.625,2.684
-0.035,-0.08,-0.044,0.058,0.004,-0.063,0.056,-0.01,-0.088,-0.134,-0.099,0.626,2.686
-0.044,-0.082,-0.038,0.063,-0.002,-0.06,0.062,0.003,-0.07,-0.124,-0.093,0.625,2.688
-0.047,-0.082,-0.034,0.065,-0.006,-0.058,0.071,0.015,-0.058,-0.112,-0.087,0.627,2.69
-0.039,-0.074,-0.035,0.057,-0.003,-0.055,0.071,0.026,-0.048,-0.102,-0.085,0.623,2.692
-0.04,-0.075,-0.035,0.058,-0.002,-0.055,0.069,0.035,-0.036,-0.093,-0.084,0.618,2.694
-0.052,-0.084,-0.032,0.068,-0.01,-0.057,0.076,0.041,-0.025,-0.087,-0.08,0.613,2.696
-0.047,-0.079,-0.032,0.063,-0.008,-0.055,0.088,0.05,-0.013,-0.079,-0.074,0.615,2.698
-0.045,-0.08,-0.035,0.063,-0.005,-0.058,0.092,0.061,-0.005,-0.072,-0.073,0.615,2.7
-0.059,-0.084,-0.025,0.072,-0.018,-0.054,0.091,0.061,-0.007,-0.076,-0.08,0.62,2.702
-0.06,-0.081,-0.022,0.07,-0.019,-0.052,0.094,0.063,-0.006,-0.074,-0.078,0.631,2.704
-0.057,-0.074,-0.017,0.065,-0.02,-0.045,0.097,0.072,0.001,-0.069,-0.072,0.638,2.706
-0.055,-0.074,-0.019,0.065,-0.019,-0.047,0.096,0.078,0.007,-0.063,-0.07,0.64,2.708
-0.057,-0.077,-0.02,0.068,-0.018,-0.048,0.099,0.084,0.013,-0.056,-0.067,0.649,2.71
-0.06,-0.08,-0.02,0.07,-0.02,-0.051,0.099,0.087,0.017,-0.052,-0.063,0.654,2.712
-0.06,-0.083,-0.023,0.071,-0.018,-0.053,0.101,0.093,0.021,-0.051,-0.06,0.653,2.714
-0.057,-0.076,-0.019,0.067,-0.018,-0.048,0.099,0.099,0.027,-0.054,-0.055,0.653,2.716
-0.055,-0.072,-0.017,0.063,-0.018,-0.045,0.104,0.1,0.034,-0.051,-0.054,0.661,2.718
-0.057,-0.077,-0.02,0.068,-0.018,-0.048,0.112,0.106,0.038,-0.049,-0.055,0.673,2.72
-0.047,-0.064,-0.017,0.055,-0.015,-0.04,0.117,0.105,0.04,-0.046,-0.05,0.683,2.722
-0.045,-0.054,-0.009,0.05,-0.018,-0.032,0.12,0.108,0.044,-0.039,-0.044,0.699,2.724
-0.057,-0.069,-0.012,0.063,-0.023,-0.041,0.112,0.111,0.043,-0.041,-0.052,0.699,2.726
-0.068,-0.082,-0.014,0.075,-0.026,-0.048,0.104,0.106,0.043,-0.042,-0.049,0.694,2.728
-0.057,-0.069,-0.013,0.063,-0.022,-0.041,0.108,0.111,0.045,-0.039,-0.044,0.694,2.73
-0.054,-0.069,-0.015,0.062,-0.02,-0.042,0.11,0.113,0.045,-0.036,-0.047,0.693,2.732
-0.061,-0.077,-0.016,0.069,-0.022,-0.047,0.109,0.111,0.047,-0.037,-0.045,0.696,2.734
-0.058,-0.071,-0.012,0.065,-0.023,-0.042,0.111,0.116,0.053,-0.034,-0.045,0.701,2.736
-0.063,-0.072,-0.009,0.069,-0.027,-0.04,0.117,0.119,0.051,-0.031,-0.042,0.702,2.738
-0.066,-0.076,-0.011,0.071,-0.027,-0.043,0.125,0.119,0.056,-0.032,-0.039,0.713,2.74
-0.057,-0.069,-0.012,0.063,-0.023,-0.04,0.127,0.124,0.064,-0.029,-0.037,0.722,2.742
-0.057,-0.066,-0.009,0.062,-0.023,-0.037,0.121,0.126,0.063,-0.026,-0.039,0.724,2.744
-0.058,-0.07,-0.012,0.063,-0.023,-0.041,0.12,0.128,0.06,-0.026,-0.043,0.729,2.746
-0.059,-0.069,-0.01,0.064,-0.025,-0.04,0.121,0.131,0.061,-0.026,-0.041,0.734,2.748
-0.057,-0.064,-0.006,0.06,-0.026,-0.035,0.119,0.127,0.062,-0.024,-0.039,0.738,2.75
-0.06,-0.07,-0.01,0.065,-0.025,-0.041,0.122,0.129,0.066,-0.021,-0.039,0.734,2.7520000000000002
-0.059,-0.075,-0.016,0.068,-0.023,-0.046,0.119,0.136,0.068,-0.021,-0.041,0.736,2.754
-0.06,-0.071,-0.011,0.065,-0.024,-0.042,0.117,0.136,0.065,-0.021,-0.042,0.739,2.7560000000000002
-0.059,-0.064,-0.005,0.062,-0.027,-0.035,0.124,0.138,0.07,-0.014,-0.037,0.745,2.758
-0.059,-0.064,-0.004,0.062,-0.028,-0.034,0.127,0.142,0.08,-0.006,-0.034,0.751,2.7600000000000002
-0.054,-0.067,-0.013,0.06,-0.02,-0.04,0.124,0.138,0.079,-0.009,-0.036,0.752,2.762
-0.059,-0.074,-0.016,0.067,-0.022,-0.046,0.12,0.136,0.072,-0.016,-0.042,0.757,2.7640000000000002
-0.055,-0.071,-0.016,0.063,-0.019,-0.044,0.127,0.141,0.08,-0.011,-0.037,0.767,2.766
-0.042,-0.056,-0.015,0.049,-0.013,-0.035,0.129,0.146,0.088,-0.003,-0.035,0.771,2.7680000000000002
-0.045,-0.053,-0.008,0.049,-0.019,-0.03,0.127,0.146,0.088,-0.004,-0.037,0.769,2.77
-0.045,-0.055,-0.009,0.05,-0.019,-0.032,0.13,0.148,0.088,-0.003,-0.037,0.768,2.7720000000000002
-0.044,-0.054,-0.01,0.05,-0.018,-0.032,0.132,0.152,0.089,-0.003,-0.037,0.767,2.774
-0.05,-0.058,-0.008,0.053,-0.02,-0.033,0.127,0.149,0.09,-0.004,-0.037,0.764,2.7760000000000002
-0.043,-0.051,-0.009,0.047,-0.017,-0.03,0.131,0.153,0.089,-0.006,-0.034,0.771,2.778
-0.042,-0.052,-0.01,0.048,-0.016,-0.031,0.135,0.162,0.098,-0.001,-0.029,0.78,2.7800000000000002
-0.057,-0.064,-0.007,0.06,-0.026,-0.035,0.132,0.159,0.096,-0.001,-0.034,0.779,2.782
-0.058,-0.064,-0.006,0.061,-0.026,-0.035,0.132,0.161,0.096,0.002,-0.035,0.782,2.7840000000000003
-0.049,-0.064,-0.015,0.057,-0.018,-0.04,0.134,0.171,0.101,0.009,-0.031,0.792,2.786
-0.044,-0.058,-0.014,0.05,-0.014,-0.036,0.132,0.174,0.108,0.007,-0.027,0.797,2.7880000000000003
-0.047,-0.056,-0.009,0.052,-0.018,-0.033,0.127,0.168,0.104,0.004,-0.031,0.79,2.79
-0.049,-0.057,-0.007,0.053,-0.02,-0.032,0.129,0.169,0.104,0.006,-0.033,0.787,2.7920000000000003
-0.045,-0.057,-0.012,0.05,-0.016,-0.035,0.127,0.177,0.106,0.007,-0.034,0.791,2.794
-0.044,-0.056,-0.012,0.05,-0.016,-0.034,0.121,0.173,0.105,0.007,-0.036,0.785,2.7960000000000003
-0.045,-0.052,-0.008,0.048,-0.018,-0.031,0.121,0.174,0.108,0.005,-0.034,0.783,2.798
-0.043,-0.048,-0.005,0.046,-0.019,-0.027,0.127,0.181,0.111,0.009,-0.027,0.79,2.8000000000000003
-0.04,-0.043,-0.003,0.041,-0.018,-0.023,0.125,0.181,0.11,0.012,-0.028,0.789,2.802
-0.049,-0.051,-0.002,0.049,-0.023,-0.026,0.124,0.181,0.112,0.006,-0.029,0.779,2.8040000000000003
-0.052,-0.057,-0.005,0.055,-0.024,-0.031,0.119,0.184,0.114,0.004,-0.031,0.767,2.806
-0.045,-0.059,-0.014,0.053,-0.016,-0.037,0.116,0.189,0.119,0.005,-0.031,0.753,2.8080000000000003
-0.039,-0.052,-0.013,0.045,-0.012,-0.033,0.117,0.194,0.121,0.009,-0.029,0.754,2.81
